frequency,raw,smoothed,error,error_smoothed,equalization,parametric_eq,equalized_raw,equalized_smoothed,target
20.00,4.61,4.61,-0.49,-0.49,0.57,-0.35,5.19,5.19,5.10
20.20,4.57,4.57,-0.53,-0.52,0.54,-0.36,5.11,5.11,5.10
20.40,4.56,4.56,-0.53,-0.54,0.51,-0.37,5.07,5.06,5.10
20.61,4.55,4.56,-0.54,-0.53,0.47,-0.37,5.02,5.03,5.10
20.81,4.59,4.59,-0.50,-0.50,0.44,-0.38,5.03,5.03,5.10
21.02,4.64,4.64,-0.45,-0.45,0.40,-0.39,5.04,5.04,5.10
21.23,4.70,4.71,-0.39,-0.39,0.37,-0.39,5.07,5.07,5.09
21.44,4.77,4.77,-0.32,-0.32,0.33,-0.40,5.11,5.11,5.09
21.66,4.84,4.84,-0.25,-0.25,0.28,-0.41,5.12,5.12,5.09
21.87,4.89,4.89,-0.20,-0.20,0.23,-0.42,5.12,5.12,5.09
22.09,4.92,4.93,-0.17,-0.17,0.19,-0.43,5.12,5.12,5.09
22.31,4.94,4.94,-0.15,-0.15,0.17,-0.44,5.11,5.11,5.09
22.54,4.95,4.95,-0.14,-0.14,0.15,-0.44,5.10,5.10,5.09
22.76,4.94,4.95,-0.15,-0.14,0.14,-0.45,5.08,5.08,5.09
22.99,4.94,4.94,-0.14,-0.15,0.13,-0.46,5.07,5.07,5.09
23.22,4.94,4.94,-0.14,-0.14,0.12,-0.47,5.06,5.06,5.09
23.45,4.95,4.96,-0.13,-0.13,0.11,-0.48,5.06,5.07,5.09
23.69,4.98,4.98,-0.10,-0.10,0.09,-0.49,5.07,5.07,5.08
23.92,5.01,5.01,-0.07,-0.07,0.07,-0.50,5.09,5.09,5.08
24.16,5.04,5.04,-0.04,-0.04,0.05,-0.51,5.10,5.09,5.08
24.40,5.06,5.06,-0.02,-0.02,0.03,-0.52,5.10,5.09,5.08
24.65,5.07,5.08,-0.01,-0.00,0.02,-0.53,5.09,5.09,5.08
24.89,5.08,5.08,0.00,0.01,0.00,-0.54,5.09,5.09,5.08
25.14,5.09,5.09,0.02,0.01,-0.01,-0.55,5.08,5.08,5.08
25.39,5.09,5.09,0.02,0.02,-0.02,-0.56,5.07,5.07,5.08
25.65,5.09,5.10,0.02,0.02,-0.03,-0.57,5.07,5.07,5.07
25.91,5.10,5.10,0.03,0.03,-0.04,-0.58,5.06,5.06,5.07
26.16,5.11,5.12,0.04,0.04,-0.05,-0.59,5.06,5.06,5.07
26.43,5.13,5.14,0.06,0.07,-0.07,-0.60,5.06,5.07,5.07
26.69,5.16,5.16,0.09,0.09,-0.09,-0.62,5.07,5.07,5.07
26.96,5.18,5.18,0.12,0.12,-0.12,-0.63,5.07,5.07,5.07
27.23,5.20,5.21,0.14,0.14,-0.14,-0.64,5.06,5.07,5.06
27.50,5.23,5.23,0.17,0.17,-0.17,-0.65,5.07,5.06,5.06
27.77,5.25,5.25,0.19,0.19,-0.19,-0.67,5.06,5.06,5.06
28.05,5.27,5.28,0.21,0.22,-0.21,-0.68,5.06,5.06,5.06
28.33,5.29,5.29,0.24,0.23,-0.23,-0.69,5.07,5.06,5.06
28.62,5.30,5.30,0.25,0.25,-0.24,-0.70,5.06,5.06,5.05
28.90,5.30,5.31,0.25,0.26,-0.25,-0.72,5.05,5.06,5.05
29.19,5.31,5.31,0.26,0.26,-0.26,-0.73,5.06,5.05,5.05
29.48,5.30,5.31,0.26,0.26,-0.26,-0.75,5.04,5.04,5.05
29.78,5.30,5.30,0.26,0.26,-0.26,-0.76,5.04,5.04,5.04
30.08,5.30,5.30,0.26,0.26,-0.27,-0.77,5.04,5.04,5.04
30.38,5.30,5.31,0.26,0.27,-0.27,-0.79,5.03,5.04,5.04
30.68,5.31,5.31,0.28,0.27,-0.27,-0.80,5.04,5.04,5.04
30.99,5.31,5.31,0.28,0.28,-0.27,-0.82,5.04,5.04,5.03
31.30,5.31,5.31,0.28,0.28,-0.28,-0.83,5.04,5.04,5.03
31.61,5.31,5.31,0.29,0.28,-0.28,-0.85,5.03,5.03,5.03
31.93,5.30,5.31,0.28,0.28,-0.28,-0.86,5.02,5.02,5.02
32.24,5.30,5.30,0.28,0.28,-0.29,-0.88,5.02,5.02,5.02
32.57,5.30,5.30,0.29,0.29,-0.29,-0.90,5.01,5.01,5.02
32.89,5.30,5.31,0.29,0.29,-0.30,-0.91,5.01,5.01,5.01
33.22,5.31,5.31,0.30,0.30,-0.30,-0.93,5.01,5.01,5.01
33.55,5.31,5.32,0.31,0.31,-0.31,-0.95,5.00,5.01,5.01
33.89,5.32,5.32,0.32,0.32,-0.32,-0.96,5.00,5.00,5.00
34.23,5.33,5.33,0.34,0.33,-0.33,-0.98,5.00,5.00,5.00
34.57,5.33,5.34,0.34,0.34,-0.34,-1.00,4.99,5.00,4.99
34.92,5.34,5.34,0.35,0.35,-0.35,-1.02,5.00,5.00,4.99
35.27,5.34,5.34,0.36,0.36,-0.35,-1.03,4.99,4.99,4.98
35.62,5.34,5.34,0.36,0.36,-0.36,-1.05,4.98,4.98,4.98
35.97,5.33,5.34,0.36,0.36,-0.36,-1.07,4.97,4.97,4.97
36.33,5.33,5.33,0.36,0.36,-0.37,-1.09,4.96,4.96,4.97
36.70,5.33,5.33,0.37,0.37,-0.38,-1.11,4.96,4.95,4.96
37.06,5.33,5.34,0.38,0.38,-0.38,-1.13,4.95,4.95,4.96
37.43,5.34,5.34,0.39,0.39,-0.39,-1.15,4.95,4.95,4.95
37.81,5.35,5.35,0.41,0.40,-0.40,-1.17,4.95,4.95,4.95
38.19,5.35,5.35,0.41,0.41,-0.41,-1.19,4.95,4.95,4.94
38.57,5.35,5.35,0.42,0.42,-0.42,-1.21,4.94,4.94,4.93
38.95,5.34,5.35,0.42,0.42,-0.42,-1.23,4.92,4.92,4.93
39.34,5.34,5.34,0.42,0.43,-0.43,-1.25,4.92,4.92,4.92
39.74,5.34,5.34,0.43,0.43,-0.43,-1.27,4.91,4.91,4.91
40.14,5.34,5.34,0.44,0.44,-0.43,-1.29,4.91,4.91,4.90
40.54,5.33,5.33,0.44,0.44,-0.44,-1.31,4.90,4.90,4.90
40.94,5.32,5.33,0.43,0.44,-0.44,-1.33,4.88,4.89,4.89
41.35,5.32,5.32,0.44,0.44,-0.45,-1.35,4.88,4.87,4.88
41.76,5.31,5.32,0.44,0.44,-0.45,-1.38,4.86,4.87,4.87
42.18,5.31,5.32,0.45,0.45,-0.45,-1.40,4.86,4.86,4.86
42.60,5.31,5.31,0.46,0.46,-0.45,-1.42,4.86,4.86,4.85
43.03,5.31,5.31,0.47,0.46,-0.45,-1.44,4.86,4.85,4.84
43.46,5.29,5.29,0.46,0.46,-0.45,-1.46,4.84,4.84,4.83
43.90,5.27,5.27,0.45,0.45,-0.45,-1.49,4.82,4.82,4.82
44.33,5.25,5.26,0.44,0.44,-0.45,-1.51,4.80,4.80,4.81
44.78,5.24,5.25,0.44,0.45,-0.45,-1.53,4.79,4.79,4.80
45.23,5.24,5.24,0.45,0.45,-0.45,-1.56,4.79,4.78,4.79
45.68,5.23,5.23,0.46,0.46,-0.46,-1.58,4.78,4.77,4.78
46.13,5.22,5.23,0.46,0.46,-0.46,-1.60,4.76,4.76,4.76
46.60,5.22,5.22,0.47,0.47,-0.47,-1.62,4.75,4.75,4.75
47.06,5.22,5.22,0.49,0.48,-0.48,-1.65,4.74,4.74,4.74
47.53,5.22,5.22,0.50,0.50,-0.49,-1.67,4.73,4.73,4.72
48.01,5.21,5.21,0.50,0.50,-0.51,-1.70,4.71,4.71,4.71
48.49,5.20,5.21,0.51,0.51,-0.52,-1.72,4.68,4.69,4.70
48.97,5.20,5.21,0.52,0.53,-0.53,-1.74,4.67,4.67,4.68
49.46,5.21,5.21,0.55,0.55,-0.55,-1.77,4.67,4.66,4.66
49.96,5.21,5.22,0.57,0.57,-0.56,-1.79,4.65,4.66,4.65
50.46,5.22,5.22,0.59,0.59,-0.58,-1.81,4.65,4.64,4.63
50.96,5.21,5.21,0.60,0.59,-0.59,-1.84,4.62,4.61,4.61
51.47,5.19,5.20,0.60,0.60,-0.61,-1.86,4.58,4.59,4.60
51.99,5.18,5.19,0.61,0.61,-0.63,-1.89,4.56,4.56,4.58
52.51,5.19,5.19,0.64,0.64,-0.64,-1.91,4.55,4.55,4.56
53.03,5.20,5.20,0.67,0.66,-0.65,-1.93,4.55,4.55,4.54
53.56,5.20,5.20,0.69,0.68,-0.66,-1.96,4.54,4.54,4.52
54.10,5.18,5.18,0.69,0.69,-0.67,-1.98,4.51,4.51,4.50
54.64,5.15,5.16,0.68,0.68,-0.68,-2.01,4.47,4.47,4.47
55.18,5.13,5.14,0.68,0.68,-0.70,-2.03,4.44,4.44,4.45
55.74,5.12,5.12,0.70,0.69,-0.71,-2.05,4.42,4.41,4.43
56.29,5.11,5.11,0.71,0.71,-0.72,-2.08,4.39,4.40,4.40
56.86,5.11,5.11,0.73,0.74,-0.74,-2.10,4.38,4.38,4.38
57.42,5.11,5.11,0.76,0.76,-0.76,-2.13,4.36,4.36,4.35
58.00,5.11,5.11,0.79,0.78,-0.78,-2.15,4.33,4.33,4.33
58.58,5.10,5.11,0.80,0.81,-0.81,-2.17,4.29,4.30,4.30
59.16,5.10,5.11,0.83,0.84,-0.84,-2.20,4.26,4.26,4.27
59.76,5.11,5.11,0.87,0.87,-0.87,-2.22,4.24,4.24,4.24
60.35,5.11,5.11,0.90,0.90,-0.90,-2.25,4.22,4.22,4.21
60.96,5.11,5.11,0.93,0.93,-0.92,-2.27,4.19,4.19,4.18
61.57,5.10,5.11,0.95,0.96,-0.94,-2.29,4.16,4.17,4.15
62.18,5.09,5.09,0.98,0.97,-0.96,-2.32,4.14,4.13,4.12
62.80,5.06,5.06,0.98,0.97,-0.97,-2.34,4.09,4.09,4.08
63.43,5.02,5.03,0.97,0.98,-0.98,-2.36,4.04,4.04,4.05
64.07,4.99,5.00,0.98,0.98,-1.00,-2.39,4.00,4.00,4.02
64.71,4.97,4.98,0.99,1.00,-1.01,-2.41,3.96,3.97,3.98
65.35,4.97,4.96,1.03,1.02,-1.02,-2.43,3.95,3.94,3.94
66.01,4.94,4.94,1.04,1.04,-1.04,-2.46,3.90,3.90,3.90
66.67,4.92,4.93,1.06,1.06,-1.06,-2.48,3.86,3.86,3.87
67.33,4.90,4.91,1.08,1.08,-1.08,-2.50,3.82,3.83,3.82
68.01,4.90,4.90,1.12,1.11,-1.10,-2.53,3.80,3.79,3.78
68.69,4.88,4.88,1.14,1.14,-1.13,-2.55,3.76,3.75,3.74
69.37,4.85,4.85,1.15,1.16,-1.15,-2.57,3.70,3.71,3.70
70.07,4.82,4.83,1.17,1.17,-1.17,-2.60,3.65,3.65,3.65
70.77,4.80,4.80,1.19,1.19,-1.20,-2.62,3.60,3.60,3.61
71.48,4.78,4.78,1.22,1.22,-1.23,-2.65,3.55,3.55,3.56
72.19,4.76,4.77,1.25,1.25,-1.27,-2.67,3.50,3.50,3.52
72.91,4.76,4.76,1.29,1.30,-1.29,-2.69,3.47,3.47,3.47
73.64,4.76,4.76,1.34,1.34,-1.32,-2.72,3.44,3.44,3.42
74.38,4.75,4.75,1.38,1.38,-1.36,-2.74,3.40,3.39,3.37
75.12,4.72,4.72,1.41,1.41,-1.39,-2.76,3.33,3.33,3.32
75.87,4.69,4.69,1.43,1.42,-1.42,-2.79,3.27,3.26,3.27
76.63,4.64,4.65,1.43,1.44,-1.46,-2.81,3.18,3.19,3.21
77.40,4.62,4.63,1.47,1.47,-1.50,-2.83,3.12,3.13,3.16
78.17,4.62,4.62,1.52,1.52,-1.54,-2.86,3.09,3.09,3.10
78.95,4.63,4.63,1.59,1.58,-1.58,-2.88,3.05,3.05,3.05
79.74,4.63,4.63,1.64,1.64,-1.62,-2.91,3.01,3.01,2.99
80.54,4.61,4.61,1.68,1.68,-1.67,-2.93,2.94,2.95,2.93
81.35,4.59,4.59,1.72,1.72,-1.71,-2.95,2.88,2.88,2.87
82.16,4.56,4.57,1.75,1.76,-1.76,-2.98,2.81,2.81,2.81
82.98,4.54,4.54,1.79,1.79,-1.80,-3.00,2.75,2.75,2.75
83.81,4.52,4.52,1.84,1.83,-1.83,-3.03,2.69,2.69,2.69
84.65,4.49,4.49,1.87,1.87,-1.87,-3.05,2.63,2.63,2.63
85.50,4.46,4.46,1.90,1.90,-1.90,-3.08,2.56,2.56,2.56
86.35,4.43,4.43,1.94,1.93,-1.93,-3.10,2.50,2.50,2.50
87.22,4.39,4.40,1.96,1.97,-1.97,-3.13,2.42,2.43,2.43
88.09,4.37,4.37,2.01,2.00,-2.01,-3.15,2.36,2.36,2.37
88.97,4.34,4.34,2.04,2.05,-2.05,-3.18,2.29,2.29,2.30
89.86,4.32,4.32,2.09,2.09,-2.09,-3.20,2.23,2.23,2.23
90.76,4.30,4.30,2.14,2.14,-2.14,-3.23,2.17,2.16,2.16
91.66,4.28,4.28,2.19,2.19,-2.18,-3.25,2.10,2.10,2.10
92.58,4.25,4.26,2.23,2.23,-2.23,-3.28,2.02,2.03,2.03
93.51,4.24,4.24,2.29,2.28,-2.28,-3.31,1.96,1.95,1.96
94.44,4.21,4.21,2.33,2.33,-2.33,-3.33,1.88,1.88,1.89
95.39,4.18,4.19,2.37,2.38,-2.37,-3.36,1.81,1.82,1.82
96.34,4.17,4.17,2.43,2.43,-2.42,-3.39,1.75,1.75,1.74
97.30,4.15,4.15,2.48,2.47,-2.46,-3.41,1.69,1.68,1.67
98.28,4.11,4.12,2.51,2.52,-2.51,-3.44,1.60,1.61,1.60
99.26,4.08,4.08,2.55,2.55,-2.56,-3.47,1.52,1.52,1.53
100.25,4.05,4.05,2.60,2.60,-2.61,-3.50,1.44,1.44,1.46
101.25,4.03,4.04,2.65,2.65,-2.67,-3.52,1.36,1.37,1.38
102.27,4.02,4.03,2.71,2.72,-2.72,-3.55,1.30,1.30,1.31
103.29,4.02,4.02,2.79,2.78,-2.78,-3.58,1.24,1.24,1.24
104.32,4.01,4.01,2.85,2.85,-2.83,-3.61,1.18,1.18,1.16
105.37,3.99,3.99,2.90,2.90,-2.88,-3.64,1.11,1.11,1.09
106.42,3.96,3.96,2.94,2.94,-2.93,-3.67,1.03,1.03,1.02
107.48,3.92,3.93,2.98,2.98,-2.98,-3.70,0.95,0.95,0.95
108.56,3.89,3.89,3.02,3.01,-3.02,-3.73,0.88,0.87,0.87
109.64,3.84,3.85,3.04,3.05,-3.06,-3.76,0.79,0.79,0.80
110.74,3.81,3.81,3.09,3.08,-3.10,-3.79,0.72,0.72,0.73
111.85,3.78,3.78,3.13,3.13,-3.14,-3.82,0.64,0.64,0.65
112.97,3.75,3.76,3.17,3.18,-3.18,-3.85,0.57,0.57,0.58
114.10,3.74,3.74,3.23,3.23,-3.23,-3.88,0.51,0.51,0.51
115.24,3.72,3.73,3.28,3.29,-3.28,-3.91,0.45,0.45,0.44
116.39,3.71,3.71,3.34,3.34,-3.33,-3.94,0.39,0.38,0.37
117.55,3.68,3.68,3.38,3.38,-3.38,-3.98,0.31,0.31,0.30
118.73,3.65,3.65,3.42,3.43,-3.43,-4.01,0.23,0.23,0.23
119.92,3.62,3.63,3.46,3.47,-3.47,-4.04,0.15,0.15,0.16
121.12,3.60,3.60,3.51,3.51,-3.52,-4.08,0.08,0.08,0.09
122.33,3.58,3.58,3.56,3.56,-3.56,-4.11,0.02,0.02,0.02
123.55,3.56,3.56,3.61,3.61,-3.61,-4.15,-0.05,-0.04,-0.05
124.79,3.54,3.54,3.66,3.65,-3.65,-4.18,-0.11,-0.11,-0.11
126.03,3.52,3.52,3.70,3.70,-3.70,-4.22,-0.17,-0.18,-0.18
127.29,3.49,3.50,3.74,3.74,-3.74,-4.25,-0.25,-0.24,-0.24
128.57,3.47,3.48,3.78,3.78,-3.78,-4.29,-0.31,-0.31,-0.31
129.85,3.45,3.45,3.83,3.82,-3.82,-4.33,-0.37,-0.37,-0.37
131.15,3.43,3.43,3.87,3.86,-3.86,-4.37,-0.43,-0.43,-0.44
132.46,3.39,3.40,3.89,3.89,-3.89,-4.40,-0.50,-0.49,-0.50
133.79,3.36,3.37,3.92,3.93,-3.92,-4.44,-0.56,-0.55,-0.56
135.12,3.33,3.34,3.95,3.95,-3.95,-4.48,-0.62,-0.61,-0.62
136.48,3.31,3.30,3.99,3.98,-3.98,-4.52,-0.66,-0.68,-0.68
137.84,3.26,3.27,4.00,4.00,-4.01,-4.56,-0.74,-0.74,-0.74
139.22,3.22,3.23,4.02,4.02,-4.04,-4.60,-0.81,-0.81,-0.79
140.61,3.20,3.20,4.05,4.05,-4.07,-4.64,-0.87,-0.87,-0.85
142.02,3.18,3.19,4.09,4.10,-4.10,-4.68,-0.92,-0.91,-0.91
143.44,3.18,3.18,4.14,4.14,-4.14,-4.72,-0.95,-0.95,-0.96
144.87,3.17,3.16,4.19,4.18,-4.17,-4.76,-1.00,-1.01,-1.02
146.32,3.14,3.14,4.21,4.21,-4.21,-4.81,-1.06,-1.06,-1.07
147.78,3.11,3.12,4.23,4.24,-4.24,-4.85,-1.13,-1.12,-1.12
149.26,3.09,3.09,4.26,4.26,-4.27,-4.89,-1.18,-1.17,-1.17
150.75,3.07,3.08,4.29,4.30,-4.29,-4.93,-1.22,-1.22,-1.22
152.26,3.06,3.05,4.33,4.32,-4.32,-4.98,-1.25,-1.26,-1.27
153.78,3.03,3.03,4.35,4.34,-4.34,-5.02,-1.30,-1.31,-1.32
155.32,2.98,2.99,4.34,4.36,-4.36,-5.06,-1.37,-1.36,-1.36
156.88,2.96,2.96,4.37,4.37,-4.38,-5.11,-1.41,-1.42,-1.41
158.44,2.93,2.93,4.38,4.38,-4.39,-5.15,-1.46,-1.47,-1.45
160.03,2.90,2.90,4.40,4.40,-4.41,-5.19,-1.51,-1.51,-1.50
161.63,2.87,2.88,4.42,4.43,-4.42,-5.24,-1.55,-1.54,-1.55
163.24,2.86,2.86,4.45,4.45,-4.43,-5.28,-1.57,-1.57,-1.59
164.88,2.84,2.84,4.47,4.47,-4.45,-5.32,-1.60,-1.61,-1.63
166.53,2.80,2.80,4.47,4.47,-4.46,-5.37,-1.66,-1.66,-1.67
168.19,2.75,2.76,4.46,4.46,-4.47,-5.41,-1.72,-1.72,-1.71
169.87,2.71,2.72,4.46,4.47,-4.49,-5.45,-1.77,-1.76,-1.74
171.57,2.70,2.70,4.48,4.49,-4.50,-5.49,-1.80,-1.79,-1.78
173.29,2.70,2.69,4.52,4.51,-4.51,-5.54,-1.81,-1.82,-1.82
175.02,2.68,2.68,4.53,4.53,-4.53,-5.58,-1.84,-1.84,-1.85
176.77,2.66,2.66,4.55,4.55,-4.55,-5.62,-1.88,-1.88,-1.88
178.54,2.64,2.64,4.56,4.56,-4.56,-5.66,-1.92,-1.92,-1.92
180.32,2.62,2.62,4.57,4.57,-4.57,-5.70,-1.95,-1.95,-1.95
182.13,2.60,2.61,4.58,4.59,-4.58,-5.74,-1.98,-1.97,-1.98
183.95,2.59,2.59,4.60,4.60,-4.58,-5.78,-1.98,-1.99,-2.01
185.79,2.56,2.56,4.60,4.60,-4.58,-5.82,-2.01,-2.02,-2.04
187.65,2.51,2.52,4.58,4.59,-4.57,-5.85,-2.06,-2.06,-2.07
189.52,2.47,2.46,4.57,4.56,-4.58,-5.89,-2.10,-2.11,-2.09
191.42,2.42,2.42,4.54,4.55,-4.58,-5.93,-2.16,-2.15,-2.12
193.33,2.38,2.41,4.53,4.56,-4.58,-5.96,-2.20,-2.17,-2.15
195.27,2.42,2.41,4.59,4.59,-4.59,-5.99,-2.17,-2.18,-2.17
197.22,2.43,2.42,4.63,4.62,-4.60,-6.03,-2.17,-2.18,-2.20
199.19,2.43,2.42,4.65,4.64,-4.62,-6.06,-2.19,-2.20,-2.22
201.18,2.40,2.41,4.65,4.65,-4.64,-6.09,-2.24,-2.23,-2.24
203.19,2.39,2.40,4.66,4.67,-4.67,-6.11,-2.27,-2.27,-2.26
205.23,2.40,2.40,4.69,4.68,-4.69,-6.14,-2.29,-2.30,-2.29
207.28,2.40,2.40,4.71,4.71,-4.71,-6.17,-2.31,-2.31,-2.31
209.35,2.40,2.41,4.73,4.74,-4.74,-6.19,-2.33,-2.33,-2.33
211.44,2.41,2.41,4.76,4.76,-4.76,-6.21,-2.35,-2.35,-2.35
213.56,2.42,2.42,4.79,4.78,-4.79,-6.23,-2.37,-2.37,-2.37
215.69,2.42,2.43,4.81,4.81,-4.82,-6.25,-2.39,-2.39,-2.38
217.85,2.43,2.44,4.83,4.84,-4.84,-6.27,-2.41,-2.40,-2.40
220.03,2.46,2.45,4.88,4.87,-4.86,-6.29,-2.40,-2.41,-2.42
222.23,2.46,2.46,4.90,4.89,-4.88,-6.30,-2.42,-2.42,-2.44
224.45,2.45,2.46,4.90,4.91,-4.90,-6.31,-2.45,-2.45,-2.45
226.70,2.44,2.44,4.91,4.91,-4.92,-6.32,-2.47,-2.47,-2.47
228.96,2.43,2.44,4.91,4.92,-4.93,-6.33,-2.50,-2.49,-2.48
231.25,2.43,2.44,4.93,4.93,-4.94,-6.34,-2.50,-2.50,-2.50
233.57,2.43,2.43,4.94,4.94,-4.94,-6.35,-2.51,-2.51,-2.51
235.90,2.42,2.42,4.96,4.95,-4.94,-6.35,-2.51,-2.52,-2.53
238.26,2.39,2.40,4.94,4.95,-4.94,-6.35,-2.54,-2.54,-2.55
240.64,2.37,2.38,4.93,4.94,-4.93,-6.35,-2.56,-2.56,-2.56
243.05,2.36,2.36,4.93,4.93,-4.93,-6.35,-2.57,-2.57,-2.57
245.48,2.33,2.33,4.92,4.92,-4.92,-6.35,-2.59,-2.59,-2.58
247.93,2.31,2.31,4.91,4.91,-4.92,-6.34,-2.60,-2.60,-2.59
250.41,2.29,2.30,4.90,4.91,-4.91,-6.34,-2.62,-2.61,-2.61
252.92,2.30,2.30,4.92,4.91,-4.91,-6.33,-2.61,-2.61,-2.62
255.45,2.29,2.29,4.92,4.92,-4.91,-6.32,-2.62,-2.62,-2.63
258.00,2.28,2.28,4.92,4.92,-4.91,-6.31,-2.63,-2.63,-2.64
260.58,2.26,2.27,4.91,4.91,-4.92,-6.30,-2.66,-2.65,-2.65
263.19,2.26,2.26,4.92,4.92,-4.93,-6.29,-2.67,-2.66,-2.65
265.82,2.26,2.27,4.93,4.93,-4.94,-6.27,-2.68,-2.67,-2.66
268.48,2.28,2.28,4.95,4.95,-4.95,-6.25,-2.67,-2.68,-2.67
271.16,2.28,2.29,4.96,4.97,-4.96,-6.24,-2.68,-2.68,-2.68
273.87,2.29,2.30,4.98,4.99,-4.98,-6.22,-2.68,-2.68,-2.69
276.61,2.31,2.30,5.01,5.00,-4.99,-6.20,-2.68,-2.69,-2.70
279.38,2.30,2.30,5.01,5.01,-5.00,-6.18,-2.70,-2.70,-2.70
282.17,2.29,2.30,5.00,5.01,-5.01,-6.16,-2.72,-2.71,-2.71
284.99,2.30,2.30,5.01,5.01,-5.02,-6.14,-2.71,-2.71,-2.71
287.84,2.31,2.31,5.02,5.02,-5.01,-6.11,-2.70,-2.71,-2.70
290.72,2.31,2.31,5.02,5.02,-5.01,-6.09,-2.70,-2.70,-2.71
293.63,2.30,2.30,5.02,5.02,-5.01,-6.06,-2.70,-2.70,-2.72
296.57,2.29,2.29,5.01,5.01,-5.00,-6.04,-2.71,-2.71,-2.71
299.53,2.28,2.28,4.99,4.99,-5.00,-6.01,-2.72,-2.72,-2.71
302.53,2.27,2.28,4.99,4.99,-5.00,-5.99,-2.73,-2.73,-2.71
305.55,2.27,2.28,4.98,4.99,-5.01,-5.96,-2.73,-2.73,-2.71
308.61,2.29,2.29,5.01,5.00,-5.01,-5.93,-2.71,-2.72,-2.71
311.69,2.30,2.31,5.01,5.02,-5.01,-5.90,-2.71,-2.70,-2.71
314.81,2.32,2.32,5.04,5.03,-5.01,-5.88,-2.69,-2.69,-2.71
317.96,2.32,2.32,5.03,5.03,-5.01,-5.85,-2.69,-2.70,-2.71
321.14,2.31,2.31,5.03,5.02,-5.02,-5.82,-2.70,-2.71,-2.71
324.35,2.28,2.29,4.99,5.00,-5.01,-5.79,-2.73,-2.72,-2.71
327.59,2.28,2.29,4.98,4.99,-5.01,-5.76,-2.72,-2.72,-2.70
330.87,2.29,2.29,5.00,4.99,-4.99,-5.73,-2.70,-2.70,-2.70
334.18,2.30,2.29,5.00,4.99,-4.98,-5.70,-2.68,-2.69,-2.70
337.52,2.27,2.28,4.98,4.98,-4.97,-5.68,-2.69,-2.69,-2.70
340.90,2.25,2.26,4.95,4.95,-4.95,-5.65,-2.70,-2.69,-2.70
344.30,2.24,2.24,4.93,4.93,-4.94,-5.62,-2.69,-2.70,-2.69
347.75,2.22,2.23,4.91,4.91,-4.92,-5.59,-2.70,-2.70,-2.68
351.23,2.21,2.22,4.90,4.90,-4.90,-5.56,-2.69,-2.69,-2.69
354.74,2.21,2.21,4.88,4.89,-4.88,-5.53,-2.67,-2.67,-2.67
358.28,2.21,2.21,4.89,4.88,-4.86,-5.50,-2.65,-2.66,-2.67
361.87,2.19,2.19,4.86,4.85,-4.85,-5.48,-2.65,-2.66,-2.66
365.49,2.16,2.17,4.82,4.83,-4.83,-5.45,-2.67,-2.66,-2.66
369.14,2.14,2.15,4.80,4.80,-4.81,-5.42,-2.67,-2.66,-2.66
372.83,2.14,2.14,4.79,4.78,-4.80,-5.39,-2.65,-2.66,-2.64
376.56,2.13,2.13,4.78,4.77,-4.78,-5.37,-2.65,-2.65,-2.65
380.33,2.11,2.12,4.75,4.76,-4.76,-5.34,-2.65,-2.64,-2.64
384.13,2.11,2.11,4.75,4.75,-4.74,-5.31,-2.63,-2.63,-2.64
387.97,2.10,2.10,4.74,4.73,-4.72,-5.29,-2.62,-2.62,-2.63
391.85,2.09,2.09,4.71,4.71,-4.70,-5.26,-2.61,-2.61,-2.61
395.77,2.06,2.07,4.68,4.68,-4.68,-5.23,-2.62,-2.61,-2.62
399.73,2.04,2.04,4.65,4.65,-4.65,-5.21,-2.61,-2.61,-2.61
403.72,2.02,2.02,4.62,4.62,-4.62,-5.18,-2.60,-2.60,-2.60
407.76,1.98,1.99,4.59,4.58,-4.58,-5.16,-2.60,-2.60,-2.60
411.84,1.95,1.96,4.55,4.55,-4.55,-5.13,-2.60,-2.59,-2.59
415.96,1.92,1.92,4.51,4.51,-4.52,-5.11,-2.59,-2.59,-2.59
420.12,1.90,1.90,4.49,4.48,-4.48,-5.09,-2.58,-2.59,-2.59
424.32,1.86,1.87,4.44,4.45,-4.45,-5.06,-2.59,-2.58,-2.58
428.56,1.84,1.85,4.41,4.42,-4.42,-5.04,-2.58,-2.58,-2.57
432.85,1.83,1.83,4.39,4.39,-4.39,-5.01,-2.56,-2.57,-2.56
437.18,1.81,1.81,4.38,4.37,-4.36,-4.99,-2.55,-2.55,-2.56
441.55,1.79,1.79,4.35,4.35,-4.34,-4.97,-2.54,-2.54,-2.55
445.96,1.77,1.77,4.32,4.31,-4.31,-4.94,-2.54,-2.54,-2.55
450.42,1.74,1.75,4.27,4.27,-4.28,-4.92,-2.54,-2.54,-2.53
454.93,1.72,1.72,4.24,4.24,-4.25,-4.90,-2.53,-2.53,-2.52
459.48,1.70,1.71,4.21,4.22,-4.22,-4.88,-2.52,-2.52,-2.51
464.07,1.69,1.69,4.20,4.20,-4.19,-4.86,-2.50,-2.50,-2.51
468.71,1.67,1.67,4.17,4.17,-4.17,-4.83,-2.49,-2.50,-2.50
473.40,1.64,1.65,4.14,4.14,-4.14,-4.81,-2.50,-2.49,-2.49
478.13,1.62,1.63,4.11,4.11,-4.11,-4.79,-2.49,-2.49,-2.48
482.91,1.60,1.60,4.08,4.07,-4.08,-4.77,-2.48,-2.48,-2.47
487.74,1.58,1.58,4.05,4.04,-4.04,-4.75,-2.46,-2.46,-2.47
492.62,1.54,1.57,4.00,4.02,-4.00,-4.73,-2.46,-2.44,-2.46
497.55,1.55,1.54,4.00,3.98,-3.97,-4.70,-2.41,-2.43,-2.45
502.52,1.52,1.49,3.96,3.93,-3.93,-4.68,-2.41,-2.44,-2.44
507.55,1.42,1.45,3.84,3.88,-3.90,-4.66,-2.48,-2.45,-2.42
512.62,1.41,1.43,3.82,3.84,-3.87,-4.64,-2.45,-2.44,-2.41
517.75,1.42,1.42,3.82,3.82,-3.83,-4.62,-2.41,-2.41,-2.40
522.93,1.44,1.43,3.83,3.82,-3.80,-4.60,-2.36,-2.37,-2.39
528.16,1.41,1.42,3.80,3.80,-3.77,-4.58,-2.35,-2.35,-2.38
533.44,1.38,1.38,3.76,3.76,-3.74,-4.56,-2.36,-2.36,-2.37
538.77,1.34,1.34,3.72,3.71,-3.72,-4.54,-2.37,-2.38,-2.37
544.16,1.30,1.31,3.66,3.67,-3.69,-4.52,-2.39,-2.38,-2.35
549.60,1.29,1.30,3.64,3.64,-3.66,-4.50,-2.37,-2.36,-2.34
555.10,1.30,1.30,3.63,3.63,-3.63,-4.48,-2.32,-2.33,-2.33
560.65,1.30,1.29,3.62,3.61,-3.59,-4.46,-2.29,-2.30,-2.32
566.25,1.27,1.27,3.58,3.58,-3.56,-4.44,-2.28,-2.29,-2.31
571.92,1.23,1.23,3.53,3.53,-3.53,-4.42,-2.30,-2.30,-2.30
577.64,1.19,1.20,3.49,3.49,-3.50,-4.40,-2.31,-2.31,-2.30
583.41,1.16,1.17,3.45,3.45,-3.48,-4.38,-2.32,-2.31,-2.29
589.25,1.15,1.15,3.43,3.43,-3.45,-4.36,-2.30,-2.30,-2.28
595.14,1.14,1.15,3.41,3.41,-3.42,-4.34,-2.27,-2.27,-2.27
601.09,1.14,1.14,3.40,3.40,-3.38,-4.32,-2.24,-2.24,-2.26
607.10,1.13,1.13,3.37,3.37,-3.35,-4.30,-2.21,-2.22,-2.24
613.17,1.11,1.10,3.34,3.33,-3.31,-4.29,-2.20,-2.21,-2.23
619.30,1.06,1.07,3.27,3.28,-3.27,-4.27,-2.21,-2.20,-2.21
625.50,1.02,1.02,3.21,3.22,-3.23,-4.25,-2.21,-2.21,-2.19
631.75,0.99,0.98,3.17,3.16,-3.19,-4.23,-2.19,-2.20,-2.18
638.07,0.94,0.97,3.10,3.13,-3.14,-4.21,-2.20,-2.17,-2.16
644.45,0.95,0.95,3.11,3.10,-3.10,-4.19,-2.15,-2.15,-2.15
650.89,0.96,0.93,3.11,3.07,-3.07,-4.17,-2.10,-2.14,-2.14
657.40,0.88,0.91,3.01,3.03,-3.03,-4.15,-2.15,-2.13,-2.12
663.98,0.87,0.88,2.99,3.00,-3.00,-4.14,-2.13,-2.12,-2.11
670.62,0.87,0.87,2.98,2.97,-2.97,-4.12,-2.10,-2.10,-2.10
677.32,0.87,0.86,2.96,2.95,-2.93,-4.10,-2.06,-2.07,-2.08
684.10,0.84,0.85,2.91,2.91,-2.89,-4.08,-2.04,-2.04,-2.06
690.94,0.81,0.81,2.86,2.86,-2.84,-4.06,-2.03,-2.03,-2.04
697.85,0.77,0.77,2.81,2.80,-2.80,-4.04,-2.03,-2.03,-2.03
704.83,0.73,0.73,2.75,2.74,-2.76,-4.02,-2.03,-2.03,-2.01
711.87,0.69,0.69,2.69,2.69,-2.72,-4.00,-2.03,-2.03,-1.99
718.99,0.66,0.67,2.65,2.66,-2.69,-3.98,-2.02,-2.01,-1.99
