frequency,raw
20.0,3.53
20.2,3.5
20.4,3.47
20.61,3.45
20.81,3.43
21.02,3.4
21.23,3.37
21.44,3.33
21.66,3.31
21.87,3.28
22.09,3.25
22.31,3.21
22.54,3.18
22.76,3.14
22.99,3.12
23.22,3.08
23.45,3.05
23.69,3.02
23.92,2.98
24.16,2.95
24.4,2.92
24.65,2.88
24.89,2.85
25.14,2.81
25.39,2.78
25.65,2.74
25.91,2.7
26.16,2.66
26.43,2.62
26.69,2.58
26.96,2.52
27.23,2.48
27.5,2.44
27.77,2.39
28.05,2.35
28.33,2.31
28.62,2.27
28.9,2.22
29.19,2.18
29.48,2.14
29.78,2.09
30.08,2.03
30.38,1.99
30.68,1.93
30.99,1.88
31.3,1.82
31.61,1.77
31.93,1.72
32.24,1.67
32.57,1.61
32.89,1.56
33.22,1.51
33.55,1.46
33.89,1.41
34.23,1.35
34.57,1.29
34.92,1.24
35.27,1.19
35.62,1.12
35.97,1.06
36.33,1.0
36.7,0.94
37.06,0.89
37.43,0.82
37.81,0.76
38.19,0.71
38.57,0.65
38.95,0.58
39.34,0.51
39.74,0.45
40.14,0.39
40.54,0.33
40.94,0.28
41.35,0.22
41.76,0.15
42.18,0.1
42.6,0.03
43.03,-0.03
43.46,-0.09
43.9,-0.16
44.33,-0.21
44.78,-0.28
45.23,-0.33
45.68,-0.38
46.13,-0.45
46.6,-0.5
47.06,-0.56
47.53,-0.61
48.01,-0.66
48.49,-0.7
48.97,-0.75
49.46,-0.8
49.96,-0.84
50.46,-0.89
50.96,-0.93
51.47,-0.97
51.99,-1.02
52.51,-1.06
53.03,-1.09
53.56,-1.13
54.1,-1.16
54.64,-1.19
55.18,-1.22
55.74,-1.25
56.29,-1.28
56.86,-1.29
57.42,-1.32
58.0,-1.33
58.58,-1.34
59.16,-1.34
59.76,-1.35
60.35,-1.36
60.96,-1.38
61.57,-1.39
62.18,-1.4
62.8,-1.39
63.43,-1.39
64.07,-1.38
64.71,-1.38
65.35,-1.37
66.01,-1.35
66.67,-1.34
67.33,-1.33
68.01,-1.3
68.69,-1.28
69.37,-1.26
70.07,-1.24
70.77,-1.22
71.48,-1.2
72.19,-1.18
72.91,-1.15
73.64,-1.13
74.38,-1.1
75.12,-1.07
75.87,-1.03
76.63,-1.0
77.4,-0.96
78.17,-0.93
78.95,-0.89
79.74,-0.86
80.54,-0.82
81.35,-0.78
82.16,-0.74
82.98,-0.7
83.81,-0.66
84.65,-0.62
85.5,-0.58
86.35,-0.55
87.22,-0.51
88.09,-0.47
88.97,-0.44
89.86,-0.4
90.76,-0.37
91.66,-0.32
92.58,-0.29
93.51,-0.25
94.44,-0.21
95.39,-0.18
96.34,-0.15
97.3,-0.12
98.28,-0.09
99.26,-0.06
100.25,-0.03
101.25,0.0
102.27,0.03
103.29,0.05
104.32,0.06
105.37,0.08
106.42,0.11
107.48,0.13
108.56,0.14
109.64,0.15
110.74,0.16
111.85,0.16
112.97,0.17
114.1,0.17
115.24,0.17
116.39,0.17
117.55,0.17
118.73,0.18
119.92,0.18
121.12,0.19
122.33,0.18
123.55,0.18
124.79,0.19
126.03,0.19
127.29,0.2
128.57,0.21
129.85,0.24
131.15,0.26
132.46,0.29
133.79,0.32
135.12,0.35
136.48,0.39
137.84,0.42
139.22,0.46
140.61,0.51
142.02,0.56
143.44,0.62
144.87,0.67
146.32,0.73
147.78,0.77
149.26,0.82
150.75,0.86
152.26,0.9
153.78,0.93
155.32,0.95
156.88,0.98
158.44,1.0
160.03,1.0
161.63,1.0
163.24,1.0
164.88,0.99
166.53,0.98
168.19,0.97
169.87,0.95
171.57,0.93
173.29,0.9
175.02,0.87
176.77,0.84
178.54,0.82
180.32,0.78
182.13,0.75
183.95,0.72
185.79,0.68
187.65,0.64
189.52,0.62
191.42,0.58
193.33,0.54
195.27,0.51
197.22,0.47
199.19,0.44
201.18,0.4
203.19,0.37
205.23,0.34
207.28,0.31
209.35,0.28
211.44,0.25
213.56,0.21
215.69,0.19
217.85,0.16
220.03,0.14
222.23,0.12
224.45,0.09
226.7,0.06
228.96,0.02
231.25,-0.01
233.57,-0.03
235.9,-0.06
238.26,-0.08
240.64,-0.11
243.05,-0.13
245.48,-0.15
247.93,-0.18
250.41,-0.19
252.92,-0.22
255.45,-0.24
258.0,-0.26
260.58,-0.28
263.19,-0.3
265.82,-0.33
268.48,-0.36
271.16,-0.37
273.87,-0.4
276.61,-0.43
279.38,-0.44
282.17,-0.46
284.99,-0.47
287.84,-0.48
290.72,-0.5
293.63,-0.52
296.57,-0.54
299.53,-0.56
302.53,-0.58
305.55,-0.6
308.61,-0.62
311.69,-0.64
314.81,-0.66
317.96,-0.68
321.14,-0.69
324.35,-0.7
327.59,-0.71
330.87,-0.72
334.18,-0.74
337.52,-0.74
340.9,-0.75
344.3,-0.75
347.75,-0.76
351.23,-0.76
354.74,-0.75
358.28,-0.74
361.87,-0.74
365.49,-0.73
369.14,-0.71
372.83,-0.7
376.56,-0.69
380.33,-0.7
384.13,-0.7
387.97,-0.71
391.85,-0.72
395.77,-0.73
399.73,-0.74
403.72,-0.76
407.76,-0.79
411.84,-0.83
415.96,-0.86
420.12,-0.9
424.32,-0.94
428.56,-0.97
432.85,-1.01
437.18,-1.03
441.55,-1.05
445.96,-1.07
450.42,-1.07
454.93,-1.05
459.48,-1.02
464.07,-0.97
468.71,-0.89
473.4,-0.8
478.13,-0.69
482.91,-0.55
487.74,-0.41
492.62,-0.27
497.55,-0.12
502.52,0.02
507.55,0.16
512.62,0.3
517.75,0.44
522.93,0.58
528.16,0.71
533.44,0.84
538.77,0.96
544.16,1.06
549.6,1.13
555.1,1.2
560.65,1.24
566.25,1.27
571.92,1.3
577.64,1.33
583.41,1.36
589.25,1.37
595.14,1.38
601.09,1.37
607.1,1.38
613.17,1.38
619.3,1.37
625.5,1.35
631.75,1.34
638.07,1.3
644.45,1.28
650.89,1.25
657.4,1.21
663.98,1.18
670.62,1.14
677.32,1.09
684.1,1.04
690.94,1.0
697.85,0.95
704.83,0.89
711.87,0.84
718.99,0.79
726.18,0.73
733.44,0.67
740.78,0.61
748.19,0.55
755.67,0.49
763.23,0.43
770.86,0.37
778.57,0.32
786.35,0.27
794.22,0.22
802.16,0.17
810.18,0.11
818.28,0.06
826.46,0.01
834.73,-0.04
843.08,-0.08
851.51,-0.12
860.02,-0.15
868.62,-0.19
877.31,-0.23
886.08,-0.25
894.94,-0.3
903.89,-0.33
912.93,-0.36
922.06,-0.39
931.28,-0.41
940.59,-0.43
950.0,-0.46
959.5,-0.48
969.09,-0.51
978.78,-0.53
988.57,-0.55
998.46,-0.57
1008.44,-0.59
1018.53,-0.6
1028.71,-0.62
1039.0,-0.64
1049.39,-0.65
1059.88,-0.66
1070.48,-0.68
1081.19,-0.7
1092.0,-0.7
1102.92,-0.71
1113.95,-0.71
1125.09,-0.71
1136.34,-0.71
1147.7,-0.7
1159.18,-0.71
1170.77,-0.7
1182.48,-0.7
1194.3,-0.67
1206.25,-0.66
1218.31,-0.64
1230.49,-0.63
1242.8,-0.6
1255.22,-0.57
1267.78,-0.54
1280.45,-0.52
1293.26,-0.49
1306.19,-0.46
1319.25,-0.44
1332.45,-0.4
1345.77,-0.37
1359.23,-0.34
1372.82,-0.31
1386.55,-0.28
1400.41,-0.25
1414.42,-0.21
1428.56,-0.17
1442.85,-0.14
1457.28,-0.1
1471.85,-0.06
1486.57,-0.02
1501.43,0.02
1516.45,0.05
1531.61,0.09
1546.93,0.12
1562.4,0.16
1578.02,0.2
1593.8,0.23
1609.74,0.26
1625.84,0.3
1642.1,0.33
1658.52,0.36
1675.1,0.39
1691.85,0.42
1708.77,0.46
1725.86,0.49
1743.12,0.52
1760.55,0.54
1778.15,0.57
1795.94,0.59
1813.9,0.62
1832.03,0.64
1850.36,0.65
1868.86,0.66
1887.55,0.66
1906.42,0.66
1925.49,0.66
1944.74,0.65
1964.19,0.64
1983.83,0.62
2003.67,0.6
2023.71,0.57
2043.94,0.55
2064.38,0.51
2085.03,0.48
2105.88,0.44
2126.94,0.41
2148.2,0.37
2169.69,0.33
2191.38,0.29
2213.3,0.24
2235.43,0.2
2257.78,0.14
2280.36,0.09
2303.17,0.05
2326.2,0.01
2349.46,-0.04
2372.95,-0.08
2396.68,-0.13
2420.65,-0.17
2444.86,-0.22
2469.31,-0.27
2494.0,-0.32
2518.94,-0.36
2544.13,-0.4
2569.57,-0.44
2595.27,-0.48
2621.22,-0.54
2647.43,-0.59
2673.9,-0.66
2700.64,-0.71
2727.65,-0.77
2754.93,-0.83
2782.48,-0.89
2810.3,-0.96
2838.4,-1.01
2866.79,-1.05
2895.46,-1.11
2924.41,-1.16
2953.65,-1.22
2983.19,-1.27
3013.02,-1.32
3043.15,-1.36
3073.58,-1.37
3104.32,-1.39
3135.36,-1.4
3166.72,-1.38
3198.38,-1.38
3230.37,-1.36
3262.67,-1.34
3295.3,-1.31
3328.25,-1.26
3361.53,-1.21
3395.15,-1.14
3429.1,-1.07
3463.39,-1.0
3498.03,-0.91
3533.01,-0.81
3568.34,-0.71
3604.02,-0.6
3640.06,-0.47
3676.46,-0.33
3713.22,-0.19
3750.36,-0.03
3787.86,0.13
3825.74,0.3
3864.0,0.48
3902.64,0.65
3941.66,0.82
3981.08,0.99
4020.89,1.18
4061.1,1.37
4101.71,1.56
4142.73,1.77
4184.15,1.98
4226.0,2.18
4268.26,2.38
4310.94,2.56
4354.05,2.71
4397.59,2.85
4441.56,2.98
4485.98,3.09
4530.84,3.19
4576.15,3.27
4621.91,3.31
4668.13,3.33
4714.81,3.32
4761.96,3.27
4809.58,3.2
4857.67,3.11
4906.25,2.99
4955.31,2.83
5004.87,2.67
5054.91,2.5
5105.46,2.33
5156.52,2.15
5208.08,1.95
5260.16,1.75
5312.77,1.54
5365.89,1.34
5419.55,1.13
5473.75,0.94
5528.49,0.74
5583.77,0.54
5639.61,0.35
5696.0,0.15
5752.96,-0.04
5810.49,-0.25
5868.6,-0.46
5927.28,-0.68
5986.56,-0.88
6046.42,-1.08
6106.89,-1.26
6167.96,-1.43
6229.64,-1.59
6291.93,-1.72
6354.85,-1.82
6418.4,-1.86
6482.58,-1.82
6547.41,-1.72
6612.88,-1.55
6679.01,-1.35
6745.8,-1.14
6813.26,-0.97
6881.39,-0.84
6950.21,-0.76
7019.71,-0.73
7089.91,-0.76
7160.81,-0.82
7232.41,-0.89
7304.74,-0.99
7377.79,-1.07
7451.56,-1.15
7526.08,-1.22
7601.34,-1.28
7677.35,-1.32
7754.13,-1.37
7831.67,-1.4
7909.98,-1.42
7989.08,-1.43
8068.98,-1.44
8149.67,-1.45
8231.16,-1.46
8313.47,-1.45
8396.61,-1.43
8480.57,-1.42
8565.38,-1.39
8651.03,-1.36
8737.54,-1.32
8824.92,-1.27
8913.17,-1.21
9002.3,-1.14
9092.32,-1.06
9183.25,-0.95
9275.08,-0.82
9367.83,-0.68
9461.51,-0.52
9556.12,-0.35
9651.68,-0.18
9748.2,-0.02
9845.68,0.13
9944.14,0.24
10043.58,0.33
10144.02,0.35
10245.46,0.38
10347.91,0.4
10451.39,0.43
10555.91,0.43
10661.46,0.44
10768.08,0.44
10875.76,0.43
10984.52,0.43
11094.36,0.41
11205.31,0.37
11317.36,0.34
11430.53,0.28
11544.84,0.22
11660.29,0.15
11776.89,0.06
11894.66,-0.05
12013.6,-0.16
12133.74,-0.31
12255.08,-0.45
12377.63,-0.63
12501.41,-0.81
12626.42,-1.01
12752.68,-1.23
12880.21,-1.47
13009.01,-1.72
13139.1,-1.99
13270.49,-2.26
13403.2,-2.57
13537.23,-2.87
13672.6,-3.19
13809.33,-3.52
13947.42,-3.86
14086.9,-4.21
14227.77,-4.57
14370.04,-4.94
14513.74,-5.31
14658.88,-5.68
14805.47,-6.07
14953.52,-6.45
15103.06,-6.84
15254.09,-7.23
15406.63,-7.62
15560.7,-8.02
15716.3,-8.41
15873.47,-8.81
16032.2,-9.21
16192.52,-9.6
16354.45,-10.0
16517.99,-10.39
16683.17,-10.79
16850.01,-11.18
17018.51,-11.57
17188.69,-11.95
17360.58,-12.34
17534.18,-12.73
17709.53,-13.1
17886.62,-13.49
18065.49,-13.85
18246.14,-14.23
18428.6,-14.59
18612.89,-14.95
18799.02,-15.3
18987.01,-15.65
19176.88,-15.99
19368.65,-16.33
19562.33,-16.67
19757.96,-16.99
19955.54,-17.32
