frequency,raw
20.0,-0.54
20.2,-0.58
20.4,-0.6
20.61,-0.59
20.81,-0.56
21.02,-0.51
21.23,-0.45
21.44,-0.38
21.66,-0.31
21.87,-0.26
22.09,-0.22
22.31,-0.2
22.54,-0.2
22.76,-0.2
22.99,-0.2
23.22,-0.21
23.45,-0.19
23.69,-0.17
23.92,-0.14
24.16,-0.11
24.4,-0.09
24.65,-0.08
24.89,-0.07
25.14,-0.06
25.39,-0.06
25.65,-0.06
25.91,-0.06
26.16,-0.04
26.43,-0.03
26.69,-0.0
26.96,0.02
27.23,0.04
27.5,0.07
27.77,0.08
28.05,0.11
28.33,0.12
28.62,0.13
28.9,0.13
29.19,0.13
29.48,0.13
29.78,0.12
30.08,0.12
30.38,0.12
30.68,0.12
30.99,0.12
31.3,0.12
31.61,0.12
31.93,0.11
32.24,0.1
32.57,0.1
32.89,0.1
33.22,0.1
33.55,0.1
33.89,0.11
34.23,0.11
34.57,0.11
34.92,0.11
35.27,0.12
35.62,0.11
35.97,0.1
36.33,0.1
36.7,0.09
37.06,0.1
37.43,0.11
37.81,0.11
38.19,0.11
38.57,0.11
38.95,0.1
39.34,0.11
39.74,0.1
40.14,0.1
40.54,0.09
40.94,0.08
41.35,0.08
41.76,0.07
42.18,0.08
42.6,0.08
43.03,0.08
43.46,0.06
43.9,0.05
44.33,0.04
44.78,0.04
45.23,0.03
45.68,0.03
46.13,0.04
46.6,0.04
47.06,0.04
47.53,0.05
48.01,0.06
48.49,0.06
48.97,0.06
49.46,0.08
49.96,0.1
50.46,0.11
50.96,0.11
51.47,0.11
51.99,0.12
52.51,0.13
53.03,0.15
53.56,0.16
54.1,0.15
54.64,0.14
55.18,0.13
55.74,0.13
56.29,0.13
56.86,0.14
57.42,0.14
58.0,0.14
58.58,0.15
59.16,0.15
59.76,0.16
60.35,0.17
60.96,0.16
61.57,0.16
62.18,0.14
62.8,0.11
63.43,0.07
64.07,0.05
64.71,0.02
65.35,0.0
66.01,-0.02
66.67,-0.05
67.33,-0.07
68.01,-0.08
68.69,-0.1
69.37,-0.13
70.07,-0.16
70.77,-0.18
71.48,-0.2
72.19,-0.22
72.91,-0.22
73.64,-0.22
74.38,-0.22
75.12,-0.24
75.87,-0.27
76.63,-0.3
77.4,-0.31
78.17,-0.3
78.95,-0.28
79.74,-0.26
80.54,-0.26
81.35,-0.26
82.16,-0.26
82.98,-0.27
83.81,-0.26
84.65,-0.26
85.5,-0.26
86.35,-0.26
87.22,-0.26
88.09,-0.25
88.97,-0.24
89.86,-0.22
90.76,-0.21
91.66,-0.19
92.58,-0.16
93.51,-0.15
94.44,-0.13
95.39,-0.11
96.34,-0.09
97.3,-0.08
98.28,-0.07
99.26,-0.06
100.25,-0.06
101.25,-0.04
102.27,-0.02
103.29,0.01
104.32,0.03
105.37,0.03
106.42,0.03
107.48,0.02
108.56,0.01
109.64,-0.01
110.74,-0.01
111.85,-0.02
112.97,-0.02
114.1,-0.01
115.24,0.01
116.39,0.01
117.55,0.01
118.73,0.01
119.92,0.02
121.12,0.02
122.33,0.03
123.55,0.04
124.79,0.05
126.03,0.06
127.29,0.06
128.57,0.07
129.85,0.08
131.15,0.08
132.46,0.08
133.79,0.08
135.12,0.07
136.48,0.07
137.84,0.07
139.22,0.06
140.61,0.05
142.02,0.07
143.44,0.08
144.87,0.1
146.32,0.1
147.78,0.1
149.26,0.1
150.75,0.11
152.26,0.11
153.78,0.11
155.32,0.1
156.88,0.08
158.44,0.07
160.03,0.07
161.63,0.07
163.24,0.07
164.88,0.07
166.53,0.05
168.19,0.03
169.87,0.01
171.57,0.01
173.29,0.01
175.02,0.02
176.77,0.02
178.54,0.0
180.32,-0.0
182.13,0.0
183.95,-0.01
185.79,-0.02
187.65,-0.05
189.52,-0.09
191.42,-0.11
193.33,-0.12
195.27,-0.11
197.22,-0.08
199.19,-0.07
201.18,-0.08
203.19,-0.07
205.23,-0.06
207.28,-0.05
209.35,-0.03
211.44,-0.02
213.56,0.0
215.69,0.01
217.85,0.04
220.03,0.06
222.23,0.07
224.45,0.09
226.7,0.08
228.96,0.08
231.25,0.09
233.57,0.1
235.9,0.1
238.26,0.09
240.64,0.08
243.05,0.07
245.48,0.06
247.93,0.05
250.41,0.05
252.92,0.05
255.45,0.05
258.0,0.05
260.58,0.05
263.19,0.06
265.82,0.07
268.48,0.09
271.16,0.11
273.87,0.14
276.61,0.15
279.38,0.16
282.17,0.18
284.99,0.18
287.84,0.2
290.72,0.2
293.63,0.21
296.57,0.2
299.53,0.2
302.53,0.2
305.55,0.21
308.61,0.23
311.69,0.26
314.81,0.28
317.96,0.29
321.14,0.29
324.35,0.28
327.59,0.29
330.87,0.3
334.18,0.3
337.52,0.3
340.9,0.29
344.3,0.28
347.75,0.27
351.23,0.27
354.74,0.29
358.28,0.28
361.87,0.27
365.49,0.27
369.14,0.25
372.83,0.25
376.56,0.25
380.33,0.26
384.13,0.26
387.97,0.26
391.85,0.26
395.77,0.24
399.73,0.23
403.72,0.22
407.76,0.21
411.84,0.18
415.96,0.17
420.12,0.15
424.32,0.14
428.56,0.13
432.85,0.13
437.18,0.12
441.55,0.11
445.96,0.1
450.42,0.08
454.93,0.07
459.48,0.06
464.07,0.06
468.71,0.06
473.4,0.05
478.13,0.03
482.91,0.02
487.74,0.01
492.62,0.01
497.55,-0.01
502.52,-0.04
507.55,-0.07
512.62,-0.09
517.75,-0.09
522.93,-0.07
528.16,-0.07
533.44,-0.09
538.77,-0.12
544.16,-0.12
549.6,-0.13
555.1,-0.13
560.65,-0.12
566.25,-0.14
571.92,-0.15
577.64,-0.17
583.41,-0.19
589.25,-0.19
595.14,-0.18
601.09,-0.17
607.1,-0.18
613.17,-0.19
619.3,-0.22
625.5,-0.26
631.75,-0.29
638.07,-0.3
644.45,-0.31
650.89,-0.32
657.4,-0.33
663.98,-0.33
670.62,-0.34
677.32,-0.33
684.1,-0.35
690.94,-0.37
697.85,-0.4
704.83,-0.44
711.87,-0.46
718.99,-0.47
726.18,-0.45
733.44,-0.44
740.78,-0.44
748.19,-0.45
755.67,-0.48
763.23,-0.52
770.86,-0.53
778.57,-0.53
786.35,-0.53
794.22,-0.52
802.16,-0.51
810.18,-0.53
818.28,-0.55
826.46,-0.57
834.73,-0.57
843.08,-0.57
851.51,-0.57
860.02,-0.56
868.62,-0.57
877.31,-0.59
886.08,-0.58
894.94,-0.59
903.89,-0.59
912.93,-0.58
922.06,-0.56
931.28,-0.55
940.59,-0.55
950.0,-0.55
959.5,-0.54
969.09,-0.53
978.78,-0.5
988.57,-0.47
998.46,-0.46
1008.44,-0.45
1018.53,-0.42
1028.71,-0.38
1039.0,-0.35
1049.39,-0.33
1059.88,-0.3
1070.48,-0.27
1081.19,-0.23
1092.0,-0.2
1102.92,-0.16
1113.95,-0.13
1125.09,-0.11
1136.34,-0.09
1147.7,-0.07
1159.18,-0.02
1170.77,0.01
1182.48,0.05
1194.3,0.06
1206.25,0.08
1218.31,0.09
1230.49,0.11
1242.8,0.14
1255.22,0.16
1267.78,0.18
1280.45,0.2
1293.26,0.23
1306.19,0.25
1319.25,0.27
1332.45,0.28
1345.77,0.29
1359.23,0.29
1372.82,0.3
1386.55,0.31
1400.41,0.35
1414.42,0.4
1428.56,0.47
1442.85,0.53
1457.28,0.6
1471.85,0.69
1486.57,0.77
1501.43,0.85
1516.45,0.92
1531.61,0.95
1546.93,0.98
1562.4,1.01
1578.02,1.03
1593.8,1.05
1609.74,1.05
1625.84,1.06
1642.1,1.06
1658.52,1.08
1675.1,1.09
1691.85,1.09
1708.77,1.09
1725.86,1.08
1743.12,1.07
1760.55,1.05
1778.15,1.03
1795.94,1.02
1813.9,1.0
1832.03,0.96
1850.36,0.92
1868.86,0.88
1887.55,0.84
1906.42,0.83
1925.49,0.79
1944.74,0.75
1964.19,0.7
1983.83,0.64
2003.67,0.58
2023.71,0.52
2043.94,0.46
2064.38,0.41
2085.03,0.37
2105.88,0.34
2126.94,0.33
2148.2,0.32
2169.69,0.32
2191.38,0.31
2213.3,0.29
2235.43,0.28
2257.78,0.25
2280.36,0.24
2303.17,0.21
2326.2,0.17
2349.46,0.12
2372.95,0.08
2396.68,0.03
2420.65,-0.04
2444.86,-0.12
2469.31,-0.22
2494.0,-0.29
2518.94,-0.36
2544.13,-0.41
2569.57,-0.45
2595.27,-0.52
2621.22,-0.59
2647.43,-0.66
2673.9,-0.74
2700.64,-0.78
2727.65,-0.82
2754.93,-0.87
2782.48,-0.9
2810.3,-0.91
2838.4,-0.92
2866.79,-0.9
2895.46,-0.89
2924.41,-0.88
2953.65,-0.87
2983.19,-0.87
3013.02,-0.88
3043.15,-0.9
3073.58,-0.94
3104.32,-0.97
3135.36,-0.99
3166.72,-1.0
3198.38,-1.0
3230.37,-1.01
3262.67,-1.02
3295.3,-1.03
3328.25,-1.04
3361.53,-1.03
3395.15,-1.02
3429.1,-1.01
3463.39,-0.99
3498.03,-0.96
3533.01,-0.91
3568.34,-0.85
3604.02,-0.77
3640.06,-0.7
3676.46,-0.64
3713.22,-0.58
3750.36,-0.52
3787.86,-0.47
3825.74,-0.39
3864.0,-0.3
3902.64,-0.22
3941.66,-0.14
3981.08,-0.07
4020.89,-0.01
4061.1,0.08
4101.71,0.16
4142.73,0.25
4184.15,0.31
4226.0,0.38
4268.26,0.44
4310.94,0.49
4354.05,0.54
4397.59,0.57
4441.56,0.61
4485.98,0.64
4530.84,0.67
4576.15,0.68
4621.91,0.64
4668.13,0.59
4714.81,0.5
4761.96,0.38
4809.58,0.22
4857.67,0.07
4906.25,-0.1
4955.31,-0.22
5004.87,-0.34
5054.91,-0.45
5105.46,-0.6
5156.52,-0.79
5208.08,-0.98
5260.16,-1.13
5312.77,-1.18
5365.89,-1.17
5419.55,-1.13
5473.75,-1.14
5528.49,-1.16
5583.77,-1.17
5639.61,-1.14
5696.0,-1.06
5752.96,-0.94
5810.49,-0.79
5868.6,-0.6
5927.28,-0.35
5986.56,-0.08
6046.42,0.25
6106.89,0.59
6167.96,0.94
6229.64,1.27
6291.93,1.57
6354.85,1.84
6418.4,2.05
6482.58,2.21
6547.41,2.31
6612.88,2.35
6679.01,2.32
6745.8,2.24
6813.26,2.14
6881.39,2.02
6950.21,1.89
7019.71,1.76
7089.91,1.63
7160.81,1.49
7232.41,1.36
7304.74,1.2
7377.79,1.02
7451.56,0.83
7526.08,0.61
7601.34,0.39
7677.35,0.19
7754.13,-0.0
7831.67,-0.15
7909.98,-0.29
7989.08,-0.4
8068.98,-0.49
8149.67,-0.56
8231.16,-0.62
8313.47,-0.66
8396.61,-0.7
8480.57,-0.72
8565.38,-0.72
8651.03,-0.72
8737.54,-0.71
8824.92,-0.7
8913.17,-0.68
9002.3,-0.66
9092.32,-0.64
9183.25,-0.61
9275.08,-0.59
9367.83,-0.58
9461.51,-0.57
9556.12,-0.55
9651.68,-0.49
9748.2,-0.32
9845.68,-0.02
9944.14,0.28
10043.58,0.56
10144.02,0.69
10245.46,0.83
10347.91,0.99
10451.39,1.16
10555.91,1.34
10661.46,1.53
10768.08,1.74
10875.76,1.95
10984.52,2.18
11094.36,2.4
11205.31,2.62
11317.36,2.84
11430.53,3.02
11544.84,3.2
11660.29,3.28
11776.89,3.34
11894.66,3.27
12013.6,3.16
12133.74,2.91
12255.08,2.6
12377.63,2.16
12501.41,1.69
12626.42,1.11
12752.68,0.53
12880.21,-0.11
13009.01,-0.75
13139.1,-1.41
13270.49,-2.06
13403.2,-2.7
13537.23,-3.34
13672.6,-3.95
13809.33,-4.55
13947.42,-5.14
14086.9,-5.7
14227.77,-6.24
14370.04,-6.77
14513.74,-7.27
14658.88,-7.77
14805.47,-8.24
14953.52,-8.7
15103.06,-9.14
15254.09,-9.57
15406.63,-9.98
15560.7,-10.38
15716.3,-10.77
15873.47,-11.14
16032.2,-11.5
16192.52,-11.85
16354.45,-12.19
16517.99,-12.51
16683.17,-12.83
16850.01,-13.14
17018.51,-13.44
17188.69,-13.73
17360.58,-14.01
17534.18,-14.28
17709.53,-14.54
17886.62,-14.81
18065.49,-15.05
18246.14,-15.29
18428.6,-15.53
18612.89,-15.76
18799.02,-15.98
18987.01,-16.19
19176.88,-16.39
19368.65,-16.6
19562.33,-16.79
19757.96,-16.99
19955.54,-17.18
