frequency,raw
20.0,0.85
20.2,0.81
20.4,0.78
20.61,0.76
20.81,0.75
21.02,0.75
21.23,0.75
21.44,0.77
21.66,0.79
21.87,0.8
22.09,0.81
22.31,0.8
22.54,0.79
22.76,0.77
22.99,0.74
23.22,0.72
23.45,0.7
23.69,0.69
23.92,0.68
24.16,0.68
24.4,0.69
24.65,0.71
24.89,0.73
25.14,0.74
25.39,0.74
25.65,0.74
25.91,0.73
26.16,0.71
26.43,0.69
26.69,0.67
26.96,0.66
27.23,0.66
27.5,0.67
27.77,0.67
28.05,0.69
28.33,0.69
28.62,0.7
28.9,0.68
29.19,0.68
29.48,0.67
29.78,0.64
30.08,0.63
30.38,0.62
30.68,0.62
30.99,0.63
31.3,0.63
31.61,0.63
31.93,0.62
32.24,0.6
32.57,0.57
32.89,0.55
33.22,0.53
33.55,0.52
33.89,0.52
34.23,0.52
34.57,0.51
34.92,0.5
35.27,0.48
35.62,0.46
35.97,0.45
36.33,0.43
36.7,0.42
37.06,0.41
37.43,0.41
37.81,0.41
38.19,0.4
38.57,0.38
38.95,0.35
39.34,0.34
39.74,0.33
40.14,0.33
40.54,0.34
40.94,0.34
41.35,0.34
41.76,0.34
42.18,0.33
42.6,0.31
43.03,0.31
43.46,0.31
43.9,0.3
44.33,0.29
44.78,0.28
45.23,0.27
45.68,0.26
46.13,0.26
46.6,0.24
47.06,0.24
47.53,0.22
48.01,0.21
48.49,0.19
48.97,0.17
49.46,0.14
49.96,0.13
50.46,0.11
50.96,0.07
51.47,0.04
51.99,0.01
52.51,-0.02
53.03,-0.06
53.56,-0.09
54.1,-0.14
54.64,-0.17
55.18,-0.21
55.74,-0.26
56.29,-0.3
56.86,-0.34
57.42,-0.38
58.0,-0.42
58.58,-0.47
59.16,-0.5
59.76,-0.54
60.35,-0.56
60.96,-0.59
61.57,-0.63
62.18,-0.65
62.8,-0.69
63.43,-0.71
64.07,-0.73
64.71,-0.77
65.35,-0.8
66.01,-0.82
66.67,-0.84
67.33,-0.86
68.01,-0.88
68.69,-0.9
69.37,-0.93
70.07,-0.95
70.77,-0.95
71.48,-0.97
72.19,-0.98
72.91,-1.0
73.64,-1.02
74.38,-1.02
75.12,-1.03
75.87,-1.03
76.63,-1.03
77.4,-1.03
78.17,-1.03
78.95,-1.01
79.74,-0.99
80.54,-0.98
81.35,-0.95
82.16,-0.93
82.98,-0.89
83.81,-0.85
84.65,-0.81
85.5,-0.77
86.35,-0.71
87.22,-0.66
88.09,-0.61
88.97,-0.56
89.86,-0.5
90.76,-0.44
91.66,-0.38
92.58,-0.32
93.51,-0.25
94.44,-0.19
95.39,-0.13
96.34,-0.08
97.3,-0.02
98.28,0.03
99.26,0.1
100.25,0.16
101.25,0.22
102.27,0.28
103.29,0.33
104.32,0.38
105.37,0.43
106.42,0.49
107.48,0.54
108.56,0.58
109.64,0.63
110.74,0.67
111.85,0.72
112.97,0.76
114.1,0.81
115.24,0.86
116.39,0.9
117.55,0.94
118.73,0.97
119.92,1.0
121.12,1.02
122.33,1.04
123.55,1.06
124.79,1.06
126.03,1.07
127.29,1.07
128.57,1.07
129.85,1.07
131.15,1.06
132.46,1.05
133.79,1.05
135.12,1.03
136.48,1.03
137.84,1.01
139.22,0.98
140.61,0.97
142.02,0.94
143.44,0.9
144.87,0.86
146.32,0.82
147.78,0.77
149.26,0.73
150.75,0.67
152.26,0.62
153.78,0.56
155.32,0.51
156.88,0.45
158.44,0.39
160.03,0.32
161.63,0.26
163.24,0.19
164.88,0.12
166.53,0.06
168.19,-0.01
169.87,-0.08
171.57,-0.14
173.29,-0.19
175.02,-0.25
176.77,-0.3
178.54,-0.34
180.32,-0.38
182.13,-0.43
183.95,-0.47
185.79,-0.51
187.65,-0.56
189.52,-0.59
191.42,-0.64
193.33,-0.68
195.27,-0.7
197.22,-0.74
199.19,-0.77
201.18,-0.79
203.19,-0.8
205.23,-0.82
207.28,-0.84
209.35,-0.84
211.44,-0.85
213.56,-0.86
215.69,-0.87
217.85,-0.86
220.03,-0.85
222.23,-0.85
224.45,-0.84
226.7,-0.84
228.96,-0.83
231.25,-0.8
233.57,-0.79
235.9,-0.77
238.26,-0.74
240.64,-0.72
243.05,-0.7
245.48,-0.67
247.93,-0.62
250.41,-0.59
252.92,-0.55
255.45,-0.5
258.0,-0.46
260.58,-0.42
263.19,-0.37
265.82,-0.32
268.48,-0.27
271.16,-0.21
273.87,-0.15
276.61,-0.11
279.38,-0.05
282.17,0.02
284.99,0.07
287.84,0.13
290.72,0.19
293.63,0.25
296.57,0.3
299.53,0.35
302.53,0.41
305.55,0.47
308.61,0.52
311.69,0.57
314.81,0.62
317.96,0.67
321.14,0.72
324.35,0.77
327.59,0.81
330.87,0.85
334.18,0.89
337.52,0.92
340.9,0.95
344.3,0.98
347.75,1.01
351.23,1.04
354.74,1.05
358.28,1.08
361.87,1.08
365.49,1.1
369.14,1.11
372.83,1.11
376.56,1.11
380.33,1.11
384.13,1.1
387.97,1.08
391.85,1.07
395.77,1.04
399.73,1.02
403.72,0.99
407.76,0.96
411.84,0.91
415.96,0.87
420.12,0.82
424.32,0.77
428.56,0.7
432.85,0.64
437.18,0.58
441.55,0.51
445.96,0.43
450.42,0.36
454.93,0.29
459.48,0.21
464.07,0.14
468.71,0.07
473.4,-0.01
478.13,-0.08
482.91,-0.15
487.74,-0.21
492.62,-0.27
497.55,-0.33
502.52,-0.37
507.55,-0.43
512.62,-0.48
517.75,-0.54
522.93,-0.59
528.16,-0.64
533.44,-0.7
538.77,-0.75
544.16,-0.8
549.6,-0.86
555.1,-0.9
560.65,-0.95
566.25,-0.97
571.92,-1.0
577.64,-1.0
583.41,-1.01
589.25,-0.99
595.14,-0.97
601.09,-0.93
607.1,-0.89
613.17,-0.84
619.3,-0.79
625.5,-0.74
631.75,-0.68
638.07,-0.63
644.45,-0.57
650.89,-0.5
657.4,-0.46
663.98,-0.4
670.62,-0.36
677.32,-0.3
684.1,-0.26
690.94,-0.22
697.85,-0.19
704.83,-0.17
711.87,-0.14
718.99,-0.11
726.18,-0.09
733.44,-0.07
740.78,-0.06
748.19,-0.05
755.67,-0.04
763.23,-0.05
770.86,-0.06
778.57,-0.07
786.35,-0.08
794.22,-0.1
802.16,-0.11
810.18,-0.12
818.28,-0.15
826.46,-0.16
834.73,-0.18
843.08,-0.2
851.51,-0.21
860.02,-0.22
868.62,-0.24
877.31,-0.26
886.08,-0.27
894.94,-0.28
903.89,-0.3
912.93,-0.32
922.06,-0.33
931.28,-0.34
940.59,-0.35
950.0,-0.36
959.5,-0.37
969.09,-0.38
978.78,-0.39
988.57,-0.39
998.46,-0.39
1008.44,-0.38
1018.53,-0.38
1028.71,-0.37
1039.0,-0.35
1049.39,-0.34
1059.88,-0.32
1070.48,-0.31
1081.19,-0.29
1092.0,-0.28
1102.92,-0.26
1113.95,-0.25
1125.09,-0.23
1136.34,-0.21
1147.7,-0.19
1159.18,-0.18
1170.77,-0.15
1182.48,-0.14
1194.3,-0.12
1206.25,-0.09
1218.31,-0.06
1230.49,-0.04
1242.8,-0.02
1255.22,0.01
1267.78,0.04
1280.45,0.06
1293.26,0.1
1306.19,0.13
1319.25,0.17
1332.45,0.21
1345.77,0.25
1359.23,0.29
1372.82,0.34
1386.55,0.39
1400.41,0.44
1414.42,0.49
1428.56,0.53
1442.85,0.59
1457.28,0.64
1471.85,0.68
1486.57,0.73
1501.43,0.77
1516.45,0.81
1531.61,0.85
1546.93,0.88
1562.4,0.92
1578.02,0.94
1593.8,0.97
1609.74,0.99
1625.84,1.01
1642.1,1.03
1658.52,1.04
1675.1,1.05
1691.85,1.06
1708.77,1.07
1725.86,1.09
1743.12,1.09
1760.55,1.1
1778.15,1.1
1795.94,1.11
1813.9,1.11
1832.03,1.12
1850.36,1.12
1868.86,1.11
1887.55,1.09
1906.42,1.08
1925.49,1.06
1944.74,1.04
1964.19,1.0
1983.83,0.97
2003.67,0.91
2023.71,0.86
2043.94,0.8
2064.38,0.73
2085.03,0.65
2105.88,0.58
2126.94,0.49
2148.2,0.41
2169.69,0.32
2191.38,0.23
2213.3,0.14
2235.43,0.04
2257.78,-0.05
2280.36,-0.14
2303.17,-0.23
2326.2,-0.32
2349.46,-0.4
2372.95,-0.48
2396.68,-0.56
2420.65,-0.63
2444.86,-0.7
2469.31,-0.77
2494.0,-0.82
2518.94,-0.87
2544.13,-0.93
2569.57,-0.97
2595.27,-1.01
2621.22,-1.05
2647.43,-1.07
2673.9,-1.09
2700.64,-1.12
2727.65,-1.13
2754.93,-1.14
2782.48,-1.17
2810.3,-1.18
2838.4,-1.2
2866.79,-1.21
2895.46,-1.22
2924.41,-1.23
2953.65,-1.24
2983.19,-1.24
3013.02,-1.25
3043.15,-1.25
3073.58,-1.25
3104.32,-1.24
3135.36,-1.23
3166.72,-1.22
3198.38,-1.2
3230.37,-1.18
3262.67,-1.14
3295.3,-1.1
3328.25,-1.05
3361.53,-1.0
3395.15,-0.94
3429.1,-0.86
3463.39,-0.79
3498.03,-0.69
3533.01,-0.59
3568.34,-0.49
3604.02,-0.37
3640.06,-0.25
3676.46,-0.11
3713.22,0.02
3750.36,0.16
3787.86,0.3
3825.74,0.45
3864.0,0.59
3902.64,0.74
3941.66,0.89
3981.08,1.02
4020.89,1.15
4061.1,1.27
4101.71,1.36
4142.73,1.44
4184.15,1.5
4226.0,1.54
4268.26,1.54
4310.94,1.53
4354.05,1.47
4397.59,1.39
4441.56,1.27
4485.98,1.13
4530.84,0.96
4576.15,0.76
4621.91,0.54
4668.13,0.31
4714.81,0.09
4761.96,-0.1
4809.58,-0.26
4857.67,-0.39
4906.25,-0.5
4955.31,-0.59
5004.87,-0.64
5054.91,-0.68
5105.46,-0.7
5156.52,-0.69
5208.08,-0.68
5260.16,-0.67
5312.77,-0.66
5365.89,-0.66
5419.55,-0.68
5473.75,-0.66
5528.49,-0.61
5583.77,-0.55
5639.61,-0.47
5696.0,-0.37
5752.96,-0.26
5810.49,-0.12
5868.6,0.0
5927.28,0.13
5986.56,0.24
6046.42,0.33
6106.89,0.39
6167.96,0.44
6229.64,0.45
6291.93,0.47
6354.85,0.49
6418.4,0.52
6482.58,0.57
6547.41,0.63
6612.88,0.7
6679.01,0.77
6745.8,0.82
6813.26,0.83
6881.39,0.8
6950.21,0.73
7019.71,0.62
7089.91,0.5
7160.81,0.35
7232.41,0.22
7304.74,0.08
7377.79,-0.02
7451.56,-0.11
7526.08,-0.17
7601.34,-0.22
7677.35,-0.23
7754.13,-0.25
7831.67,-0.24
7909.98,-0.24
7989.08,-0.22
8068.98,-0.2
8149.67,-0.17
8231.16,-0.15
8313.47,-0.11
8396.61,-0.08
8480.57,-0.03
8565.38,0.04
8651.03,0.12
8737.54,0.21
8824.92,0.31
8913.17,0.43
9002.3,0.57
9092.32,0.71
9183.25,0.87
9275.08,1.03
9367.83,1.2
9461.51,1.36
9556.12,1.5
9651.68,1.62
9748.2,1.73
9845.68,1.81
9944.14,1.89
10043.58,1.96
10144.02,2.01
10245.46,2.07
10347.91,2.12
10451.39,2.17
10555.91,2.21
10661.46,2.25
10768.08,2.28
10875.76,2.3
10984.52,2.31
11094.36,2.33
11205.31,2.32
11317.36,2.31
11430.53,2.28
11544.84,2.25
11660.29,2.19
11776.89,2.13
11894.66,2.04
12013.6,1.95
12133.74,1.83
12255.08,1.7
12377.63,1.55
12501.41,1.39
12626.42,1.2
12752.68,1.01
12880.21,0.79
13009.01,0.55
13139.1,0.3
13270.49,0.04
13403.2,-0.25
13537.23,-0.53
13672.6,-0.84
13809.33,-1.16
13947.42,-1.49
14086.9,-1.81
14227.77,-2.16
14370.04,-2.51
14513.74,-2.87
14658.88,-3.25
14805.47,-3.62
14953.52,-3.99
15103.06,-4.37
15254.09,-4.75
15406.63,-5.14
15560.7,-5.52
15716.3,-5.92
15873.47,-6.31
16032.2,-6.69
16192.52,-7.09
16354.45,-7.48
16517.99,-7.87
16683.17,-8.26
16850.01,-8.66
17018.51,-9.05
17188.69,-9.43
17360.58,-9.82
17534.18,-10.2
17709.53,-10.59
17886.62,-10.96
18065.49,-11.34
18246.14,-11.72
18428.6,-12.09
18612.89,-12.46
18799.02,-12.82
18987.01,-13.17
19176.88,-13.52
19368.65,-13.87
19562.33,-14.2
19757.96,-14.55
19955.54,-14.88
