frequency,raw
20.0,2.2
20.2,2.15
20.4,2.09
20.61,2.05
20.81,2.03
21.02,2.01
21.23,2.0
21.44,1.99
21.66,1.99
21.87,1.99
22.09,1.97
22.31,1.94
22.54,1.91
22.76,1.87
22.99,1.83
23.22,1.78
23.45,1.73
23.69,1.7
23.92,1.67
24.16,1.66
24.4,1.65
24.65,1.65
24.89,1.63
25.14,1.63
25.39,1.61
25.65,1.59
25.91,1.56
26.16,1.52
26.43,1.47
26.69,1.43
26.96,1.39
27.23,1.37
27.5,1.36
27.77,1.34
28.05,1.34
28.33,1.31
28.62,1.3
28.9,1.26
29.19,1.23
29.48,1.19
29.78,1.14
30.08,1.11
30.38,1.08
30.68,1.05
30.99,1.03
31.3,1.01
31.61,0.98
31.93,0.94
32.24,0.89
32.57,0.84
32.89,0.79
33.22,0.75
33.55,0.72
33.89,0.69
34.23,0.66
34.57,0.63
34.92,0.6
35.27,0.57
35.62,0.52
35.97,0.49
36.33,0.46
36.7,0.44
37.06,0.42
37.43,0.41
37.81,0.38
38.19,0.36
38.57,0.34
38.95,0.31
39.34,0.28
39.74,0.27
40.14,0.27
40.54,0.25
40.94,0.25
41.35,0.24
41.76,0.22
42.18,0.21
42.6,0.2
43.03,0.19
43.46,0.18
43.9,0.17
44.33,0.16
44.78,0.14
45.23,0.12
45.68,0.11
46.13,0.09
46.6,0.07
47.06,0.05
47.53,0.04
48.01,0.01
48.49,-0.02
48.97,-0.05
49.46,-0.08
49.96,-0.11
50.46,-0.14
50.96,-0.18
51.47,-0.22
51.99,-0.26
52.51,-0.3
53.03,-0.35
53.56,-0.38
54.1,-0.43
54.64,-0.46
55.18,-0.51
55.74,-0.56
56.29,-0.6
56.86,-0.64
57.42,-0.69
58.0,-0.73
58.58,-0.77
59.16,-0.81
59.76,-0.85
60.35,-0.87
60.96,-0.89
61.57,-0.92
62.18,-0.93
62.8,-0.95
63.43,-0.97
64.07,-0.98
64.71,-1.0
65.35,-1.03
66.01,-1.05
66.67,-1.07
67.33,-1.08
68.01,-1.1
68.69,-1.12
69.37,-1.13
70.07,-1.14
70.77,-1.14
71.48,-1.15
72.19,-1.15
72.91,-1.15
73.64,-1.16
74.38,-1.16
75.12,-1.17
75.87,-1.17
76.63,-1.15
77.4,-1.15
78.17,-1.13
78.95,-1.12
79.74,-1.1
80.54,-1.07
81.35,-1.05
82.16,-1.02
82.98,-0.97
83.81,-0.93
84.65,-0.88
85.5,-0.84
86.35,-0.78
87.22,-0.73
88.09,-0.66
88.97,-0.6
89.86,-0.54
90.76,-0.48
91.66,-0.43
92.58,-0.36
93.51,-0.3
94.44,-0.24
95.39,-0.17
96.34,-0.11
97.3,-0.04
98.28,0.03
99.26,0.09
100.25,0.15
101.25,0.22
102.27,0.28
103.29,0.34
104.32,0.39
105.37,0.44
106.42,0.49
107.48,0.54
108.56,0.59
109.64,0.64
110.74,0.69
111.85,0.74
112.97,0.79
114.1,0.84
115.24,0.89
116.39,0.93
117.55,0.98
118.73,1.01
119.92,1.04
121.12,1.07
122.33,1.09
123.55,1.1
124.79,1.12
126.03,1.14
127.29,1.14
128.57,1.16
129.85,1.15
131.15,1.15
132.46,1.15
133.79,1.16
135.12,1.15
136.48,1.14
137.84,1.11
139.22,1.08
140.61,1.05
142.02,1.04
143.44,1.02
144.87,1.0
146.32,0.96
147.78,0.92
149.26,0.89
150.75,0.84
152.26,0.79
153.78,0.74
155.32,0.71
156.88,0.65
158.44,0.6
160.03,0.53
161.63,0.46
163.24,0.37
164.88,0.29
166.53,0.21
168.19,0.14
169.87,0.06
171.57,-0.01
173.29,-0.08
175.02,-0.14
176.77,-0.2
178.54,-0.25
180.32,-0.32
182.13,-0.37
183.95,-0.43
185.79,-0.49
187.65,-0.54
189.52,-0.6
191.42,-0.66
193.33,-0.71
195.27,-0.75
197.22,-0.79
199.19,-0.83
201.18,-0.86
203.19,-0.88
205.23,-0.9
207.28,-0.91
209.35,-0.92
211.44,-0.93
213.56,-0.94
215.69,-0.94
217.85,-0.94
220.03,-0.93
222.23,-0.92
224.45,-0.91
226.7,-0.91
228.96,-0.89
231.25,-0.87
233.57,-0.86
235.9,-0.84
238.26,-0.82
240.64,-0.8
243.05,-0.77
245.48,-0.74
247.93,-0.7
250.41,-0.67
252.92,-0.63
255.45,-0.58
258.0,-0.54
260.58,-0.51
263.19,-0.46
265.82,-0.41
268.48,-0.35
271.16,-0.3
273.87,-0.25
276.61,-0.19
279.38,-0.15
282.17,-0.09
284.99,-0.03
287.84,0.02
290.72,0.08
293.63,0.13
296.57,0.18
299.53,0.24
302.53,0.3
305.55,0.35
308.61,0.41
311.69,0.46
314.81,0.51
317.96,0.56
321.14,0.61
324.35,0.66
327.59,0.7
330.87,0.75
334.18,0.79
337.52,0.81
340.9,0.85
344.3,0.88
347.75,0.91
351.23,0.94
354.74,0.97
358.28,0.99
361.87,1.01
365.49,1.03
369.14,1.05
372.83,1.06
376.56,1.07
380.33,1.07
384.13,1.07
387.97,1.07
391.85,1.06
395.77,1.05
399.73,1.03
403.72,1.02
407.76,0.99
411.84,0.94
415.96,0.9
420.12,0.86
424.32,0.81
428.56,0.75
432.85,0.69
437.18,0.63
441.55,0.56
445.96,0.49
450.42,0.42
454.93,0.35
459.48,0.28
464.07,0.22
468.71,0.16
473.4,0.1
478.13,0.03
482.91,-0.01
487.74,-0.06
492.62,-0.1
497.55,-0.14
502.52,-0.18
507.55,-0.22
512.62,-0.27
517.75,-0.31
522.93,-0.36
528.16,-0.42
533.44,-0.46
538.77,-0.52
544.16,-0.58
549.6,-0.65
555.1,-0.71
560.65,-0.75
566.25,-0.78
571.92,-0.81
577.64,-0.82
583.41,-0.83
589.25,-0.82
595.14,-0.8
601.09,-0.77
607.1,-0.74
613.17,-0.71
619.3,-0.68
625.5,-0.63
631.75,-0.59
638.07,-0.55
644.45,-0.5
650.89,-0.45
657.4,-0.41
663.98,-0.37
670.62,-0.33
677.32,-0.28
684.1,-0.25
690.94,-0.21
697.85,-0.18
704.83,-0.15
711.87,-0.13
718.99,-0.1
726.18,-0.08
733.44,-0.06
740.78,-0.04
748.19,-0.02
755.67,-0.01
763.23,0.0
770.86,0.01
778.57,0.0
786.35,-0.01
794.22,-0.01
802.16,-0.03
810.18,-0.04
818.28,-0.07
826.46,-0.11
834.73,-0.13
843.08,-0.17
851.51,-0.21
860.02,-0.24
868.62,-0.28
877.31,-0.33
886.08,-0.37
894.94,-0.42
903.89,-0.45
912.93,-0.49
922.06,-0.53
931.28,-0.57
940.59,-0.59
950.0,-0.61
959.5,-0.61
969.09,-0.63
978.78,-0.63
988.57,-0.63
998.46,-0.63
1008.44,-0.62
1018.53,-0.61
1028.71,-0.6
1039.0,-0.58
1049.39,-0.56
1059.88,-0.53
1070.48,-0.51
1081.19,-0.48
1092.0,-0.45
1102.92,-0.42
1113.95,-0.39
1125.09,-0.35
1136.34,-0.32
1147.7,-0.28
1159.18,-0.25
1170.77,-0.21
1182.48,-0.17
1194.3,-0.13
1206.25,-0.07
1218.31,-0.04
1230.49,0.01
1242.8,0.05
1255.22,0.08
1267.78,0.13
1280.45,0.17
1293.26,0.22
1306.19,0.27
1319.25,0.33
1332.45,0.39
1345.77,0.45
1359.23,0.51
1372.82,0.57
1386.55,0.65
1400.41,0.72
1414.42,0.77
1428.56,0.82
1442.85,0.87
1457.28,0.91
1471.85,0.95
1486.57,1.0
1501.43,1.02
1516.45,1.04
1531.61,1.05
1546.93,1.05
1562.4,1.07
1578.02,1.08
1593.8,1.08
1609.74,1.1
1625.84,1.12
1642.1,1.12
1658.52,1.13
1675.1,1.12
1691.85,1.1
1708.77,1.08
1725.86,1.04
1743.12,1.01
1760.55,0.96
1778.15,0.9
1795.94,0.85
1813.9,0.79
1832.03,0.73
1850.36,0.68
1868.86,0.62
1887.55,0.57
1906.42,0.52
1925.49,0.47
1944.74,0.41
1964.19,0.35
1983.83,0.3
2003.67,0.23
2023.71,0.19
2043.94,0.13
2064.38,0.07
2085.03,0.01
2105.88,-0.06
2126.94,-0.12
2148.2,-0.18
2169.69,-0.24
2191.38,-0.29
2213.3,-0.34
2235.43,-0.37
2257.78,-0.41
2280.36,-0.45
2303.17,-0.49
2326.2,-0.52
2349.46,-0.55
2372.95,-0.58
2396.68,-0.6
2420.65,-0.62
2444.86,-0.65
2469.31,-0.67
2494.0,-0.68
2518.94,-0.69
2544.13,-0.68
2569.57,-0.68
2595.27,-0.7
2621.22,-0.7
2647.43,-0.72
2673.9,-0.73
2700.64,-0.74
2727.65,-0.75
2754.93,-0.77
2782.48,-0.79
2810.3,-0.8
2838.4,-0.8
2866.79,-0.8
2895.46,-0.81
2924.41,-0.82
2953.65,-0.84
2983.19,-0.85
3013.02,-0.87
3043.15,-0.88
3073.58,-0.9
3104.32,-0.91
3135.36,-0.92
3166.72,-0.92
3198.38,-0.91
3230.37,-0.9
3262.67,-0.89
3295.3,-0.88
3328.25,-0.86
3361.53,-0.84
3395.15,-0.79
3429.1,-0.75
3463.39,-0.7
3498.03,-0.64
3533.01,-0.57
3568.34,-0.49
3604.02,-0.41
3640.06,-0.32
3676.46,-0.23
3713.22,-0.13
3750.36,-0.03
3787.86,0.08
3825.74,0.19
3864.0,0.31
3902.64,0.43
3941.66,0.54
3981.08,0.66
4020.89,0.76
4061.1,0.88
4101.71,0.99
4142.73,1.08
4184.15,1.17
4226.0,1.26
4268.26,1.32
4310.94,1.35
4354.05,1.35
4397.59,1.32
4441.56,1.26
4485.98,1.18
4530.84,1.07
4576.15,0.94
4621.91,0.8
4668.13,0.63
4714.81,0.49
4761.96,0.37
4809.58,0.27
4857.67,0.21
4906.25,0.16
4955.31,0.12
5004.87,0.08
5054.91,0.05
5105.46,0.03
5156.52,0.02
5208.08,0.02
5260.16,0.03
5312.77,0.03
5365.89,0.02
5419.55,0.01
5473.75,0.02
5528.49,0.06
5583.77,0.12
5639.61,0.19
5696.0,0.28
5752.96,0.38
5810.49,0.51
5868.6,0.63
5927.28,0.76
5986.56,0.87
6046.42,0.99
6106.89,1.06
6167.96,1.11
6229.64,1.13
6291.93,1.12
6354.85,1.11
6418.4,1.11
6482.58,1.12
6547.41,1.14
6612.88,1.17
6679.01,1.18
6745.8,1.18
6813.26,1.14
6881.39,1.04
6950.21,0.92
7019.71,0.75
7089.91,0.57
7160.81,0.37
7232.41,0.17
7304.74,-0.01
7377.79,-0.18
7451.56,-0.32
7526.08,-0.44
7601.34,-0.53
7677.35,-0.61
7754.13,-0.67
7831.67,-0.73
7909.98,-0.77
7989.08,-0.81
8068.98,-0.84
8149.67,-0.88
8231.16,-0.91
8313.47,-0.94
8396.61,-0.97
8480.57,-0.99
8565.38,-0.99
8651.03,-0.99
8737.54,-0.98
8824.92,-0.95
8913.17,-0.91
9002.3,-0.86
9092.32,-0.8
9183.25,-0.72
9275.08,-0.65
9367.83,-0.57
9461.51,-0.51
9556.12,-0.45
9651.68,-0.42
9748.2,-0.41
9845.68,-0.43
9944.14,-0.46
10043.58,-0.51
10144.02,-0.45
10245.46,-0.38
10347.91,-0.31
10451.39,-0.25
10555.91,-0.19
10661.46,-0.14
10768.08,-0.08
10875.76,-0.03
10984.52,0.01
11094.36,0.05
11205.31,0.08
11317.36,0.11
11430.53,0.11
11544.84,0.12
11660.29,0.11
11776.89,0.1
11894.66,0.06
12013.6,0.03
12133.74,-0.04
12255.08,-0.11
12377.63,-0.2
12501.41,-0.3
12626.42,-0.43
12752.68,-0.55
12880.21,-0.7
13009.01,-0.86
13139.1,-1.03
13270.49,-1.22
13403.2,-1.41
13537.23,-1.62
13672.6,-1.84
13809.33,-2.06
13947.42,-2.3
14086.9,-2.54
14227.77,-2.79
14370.04,-3.03
14513.74,-3.3
14658.88,-3.56
14805.47,-3.82
14953.52,-4.07
15103.06,-4.34
15254.09,-4.61
15406.63,-4.88
15560.7,-5.14
15716.3,-5.4
15873.47,-5.66
16032.2,-5.92
16192.52,-6.18
16354.45,-6.44
16517.99,-6.69
16683.17,-6.95
16850.01,-7.18
17018.51,-7.43
17188.69,-7.67
17360.58,-7.9
17534.18,-8.13
17709.53,-8.35
17886.62,-8.57
18065.49,-8.78
18246.14,-8.98
18428.6,-9.19
18612.89,-9.38
18799.02,-9.56
18987.01,-9.74
19176.88,-9.91
19368.65,-10.08
19562.33,-10.23
19757.96,-10.38
19955.54,-10.52
