frequency,raw,smoothed,error,error_smoothed,equalization,parametric_eq,equalized_raw,equalized_smoothed,target
20.00,4.63,4.63,-3.58,-3.58,3.62,0.43,8.25,8.25,8.21
20.20,4.57,4.57,-3.63,-3.63,3.64,0.44,8.21,8.21,8.20
20.40,4.51,4.52,-3.67,-3.67,3.65,0.45,8.16,8.17,8.18
20.61,4.48,4.47,-3.69,-3.70,3.67,0.46,8.15,8.14,8.17
20.81,4.44,4.44,-3.72,-3.71,3.68,0.46,8.12,8.12,8.16
21.02,4.42,4.42,-3.72,-3.72,3.70,0.47,8.12,8.11,8.14
21.23,4.40,4.40,-3.73,-3.73,3.71,0.48,8.11,8.11,8.13
21.44,4.39,4.39,-3.72,-3.72,3.72,0.49,8.11,8.11,8.11
21.66,4.39,4.39,-3.71,-3.71,3.72,0.50,8.11,8.11,8.10
21.87,4.38,4.38,-3.71,-3.71,3.72,0.51,8.10,8.10,8.09
22.09,4.36,4.36,-3.71,-3.71,3.73,0.52,8.09,8.09,8.07
22.31,4.33,4.33,-3.73,-3.73,3.74,0.53,8.07,8.07,8.06
22.54,4.30,4.30,-3.75,-3.75,3.76,0.54,8.06,8.06,8.05
22.76,4.26,4.26,-3.78,-3.78,3.79,0.55,8.05,8.05,8.04
22.99,4.21,4.21,-3.82,-3.82,3.82,0.56,8.03,8.03,8.03
23.22,4.16,4.16,-3.85,-3.85,3.85,0.57,8.01,8.01,8.01
23.45,4.11,4.11,-3.89,-3.89,3.88,0.59,7.98,7.99,8.00
23.69,4.07,4.07,-3.91,-3.91,3.90,0.60,7.97,7.97,7.98
23.92,4.04,4.04,-3.93,-3.93,3.92,0.61,7.95,7.96,7.97
24.16,4.02,4.02,-3.93,-3.94,3.93,0.62,7.95,7.94,7.95
24.40,4.00,4.00,-3.94,-3.94,3.93,0.63,7.93,7.93,7.94
24.65,3.99,3.99,-3.94,-3.93,3.93,0.64,7.92,7.93,7.93
24.89,3.98,3.98,-3.93,-3.93,3.94,0.66,7.92,7.92,7.91
25.14,3.97,3.97,-3.93,-3.93,3.94,0.67,7.91,7.91,7.90
25.39,3.94,3.95,-3.94,-3.94,3.95,0.68,7.89,7.90,7.88
25.65,3.92,3.92,-3.95,-3.95,3.97,0.69,7.89,7.88,7.87
25.91,3.88,3.88,-3.97,-3.98,3.99,0.71,7.87,7.86,7.85
26.16,3.83,3.83,-4.01,-4.01,4.01,0.72,7.84,7.84,7.84
26.43,3.78,3.78,-4.04,-4.04,4.04,0.73,7.82,7.82,7.82
26.69,3.74,3.74,-4.08,-4.08,4.06,0.75,7.80,7.80,7.82
26.96,3.70,3.70,-4.10,-4.10,4.08,0.76,7.79,7.79,7.80
27.23,3.67,3.67,-4.12,-4.12,4.10,0.78,7.77,7.78,7.79
27.50,3.65,3.65,-4.12,-4.12,4.12,0.79,7.77,7.77,7.77
27.77,3.63,3.63,-4.13,-4.13,4.13,0.80,7.76,7.76,7.76
28.05,3.61,3.61,-4.13,-4.13,4.14,0.82,7.75,7.75,7.74
28.33,3.59,3.59,-4.14,-4.14,4.15,0.83,7.74,7.74,7.73
28.62,3.56,3.56,-4.15,-4.15,4.17,0.85,7.73,7.73,7.71
28.90,3.52,3.52,-4.18,-4.18,4.19,0.86,7.71,7.71,7.70
29.19,3.48,3.48,-4.20,-4.20,4.21,0.88,7.69,7.69,7.68
29.48,3.43,3.43,-4.24,-4.23,4.23,0.90,7.66,7.66,7.67
29.78,3.38,3.38,-4.27,-4.27,4.26,0.91,7.64,7.64,7.65
30.08,3.34,3.34,-4.29,-4.30,4.28,0.93,7.62,7.62,7.63
30.38,3.30,3.30,-4.33,-4.32,4.31,0.94,7.61,7.61,7.63
30.68,3.27,3.27,-4.34,-4.34,4.33,0.96,7.60,7.60,7.61
30.99,3.25,3.25,-4.34,-4.35,4.35,0.98,7.60,7.60,7.59
31.30,3.22,3.22,-4.36,-4.36,4.37,0.99,7.59,7.59,7.58
31.61,3.18,3.18,-4.38,-4.38,4.40,1.01,7.58,7.58,7.56
31.93,3.13,3.13,-4.41,-4.41,4.43,1.03,7.56,7.56,7.54
32.24,3.08,3.08,-4.45,-4.45,4.46,1.05,7.54,7.53,7.53
32.57,3.02,3.02,-4.49,-4.49,4.49,1.06,7.51,7.51,7.51
32.89,2.96,2.96,-4.53,-4.53,4.52,1.08,7.48,7.48,7.49
33.22,2.91,2.91,-4.57,-4.57,4.55,1.10,7.46,7.46,7.48
33.55,2.87,2.87,-4.60,-4.60,4.58,1.12,7.45,7.45,7.47
33.89,2.83,2.83,-4.62,-4.62,4.61,1.14,7.44,7.45,7.45
34.23,2.80,2.79,-4.63,-4.64,4.64,1.16,7.44,7.44,7.43
34.57,2.75,2.75,-4.66,-4.66,4.67,1.17,7.42,7.43,7.41
34.92,2.70,2.70,-4.70,-4.69,4.70,1.19,7.40,7.41,7.40
35.27,2.65,2.65,-4.73,-4.73,4.74,1.21,7.39,7.38,7.38
35.62,2.59,2.59,-4.77,-4.77,4.77,1.23,7.36,7.36,7.36
35.97,2.54,2.54,-4.80,-4.80,4.80,1.25,7.34,7.34,7.34
36.33,2.48,2.48,-4.85,-4.84,4.83,1.27,7.31,7.31,7.33
36.70,2.44,2.44,-4.87,-4.87,4.86,1.29,7.30,7.30,7.31
37.06,2.39,2.39,-4.90,-4.90,4.89,1.31,7.28,7.28,7.29
37.43,2.35,2.35,-4.92,-4.92,4.92,1.33,7.27,7.28,7.27
37.81,2.31,2.31,-4.94,-4.94,4.95,1.35,7.26,7.26,7.25
38.19,2.26,2.26,-4.97,-4.97,4.98,1.37,7.24,7.24,7.23
38.57,2.20,2.20,-5.01,-5.01,5.01,1.39,7.21,7.21,7.21
38.95,2.14,2.14,-5.05,-5.05,5.04,1.40,7.18,7.18,7.19
39.34,2.09,2.09,-5.08,-5.08,5.07,1.42,7.16,7.16,7.17
39.74,2.04,2.04,-5.11,-5.11,5.09,1.44,7.13,7.14,7.15
40.14,2.00,2.00,-5.13,-5.13,5.12,1.46,7.12,7.12,7.13
40.54,1.97,1.97,-5.14,-5.14,5.14,1.48,7.11,7.11,7.11
40.94,1.93,1.93,-5.15,-5.16,5.17,1.50,7.10,7.09,7.08
41.35,1.88,1.88,-5.18,-5.18,5.19,1.52,7.07,7.07,7.06
41.76,1.84,1.84,-5.21,-5.20,5.21,1.54,7.05,7.04,7.05
42.18,1.79,1.79,-5.23,-5.23,5.23,1.56,7.02,7.02,7.02
42.60,1.74,1.74,-5.26,-5.26,5.25,1.57,6.99,6.99,7.00
43.03,1.69,1.69,-5.28,-5.28,5.28,1.59,6.97,6.97,6.97
43.46,1.64,1.64,-5.30,-5.30,5.30,1.61,6.94,6.95,6.94
43.90,1.60,1.60,-5.32,-5.33,5.33,1.63,6.93,6.92,6.92
44.33,1.55,1.55,-5.35,-5.35,5.35,1.64,6.90,6.90,6.90
44.78,1.49,1.49,-5.38,-5.38,5.38,1.66,6.87,6.87,6.87
45.23,1.44,1.44,-5.41,-5.41,5.40,1.68,6.84,6.84,6.85
45.68,1.39,1.39,-5.43,-5.43,5.43,1.69,6.82,6.81,6.82
46.13,1.34,1.34,-5.45,-5.45,5.45,1.71,6.79,6.79,6.79
46.60,1.29,1.29,-5.48,-5.48,5.48,1.72,6.77,6.77,6.77
47.06,1.24,1.24,-5.50,-5.50,5.50,1.74,6.74,6.74,6.74
47.53,1.18,1.18,-5.53,-5.53,5.53,1.75,6.71,6.71,6.71
48.01,1.12,1.12,-5.56,-5.56,5.56,1.77,6.68,6.68,6.68
48.49,1.06,1.06,-5.58,-5.59,5.59,1.78,6.65,6.64,6.64
48.97,0.99,0.99,-5.63,-5.62,5.62,1.79,6.61,6.61,6.62
49.46,0.93,0.93,-5.66,-5.66,5.65,1.80,6.58,6.58,6.59
49.96,0.87,0.87,-5.68,-5.69,5.69,1.82,6.56,6.56,6.55
50.46,0.80,0.80,-5.72,-5.72,5.73,1.83,6.53,6.53,6.52
50.96,0.73,0.73,-5.76,-5.76,5.76,1.83,6.49,6.49,6.49
51.47,0.65,0.65,-5.81,-5.80,5.80,1.84,6.45,6.46,6.46
51.99,0.58,0.58,-5.84,-5.84,5.84,1.85,6.42,6.42,6.42
52.51,0.50,0.50,-5.88,-5.88,5.88,1.86,6.38,6.38,6.38
53.03,0.42,0.42,-5.93,-5.92,5.92,1.86,6.34,6.35,6.35
53.56,0.35,0.35,-5.96,-5.96,5.97,1.87,6.31,6.31,6.31
54.10,0.27,0.27,-6.00,-6.01,6.01,1.87,6.28,6.28,6.27
54.64,0.19,0.19,-6.05,-6.05,6.05,1.88,6.24,6.24,6.24
55.18,0.10,0.10,-6.10,-6.09,6.09,1.88,6.19,6.20,6.20
55.74,0.02,0.02,-6.13,-6.14,6.14,1.88,6.16,6.15,6.15
56.29,-0.07,-0.07,-6.18,-6.18,6.18,1.88,6.11,6.11,6.11
56.86,-0.15,-0.15,-6.22,-6.22,6.22,1.88,6.07,6.07,6.07
57.42,-0.23,-0.23,-6.26,-6.26,6.26,1.88,6.03,6.03,6.03
58.00,-0.32,-0.32,-6.30,-6.30,6.30,1.88,5.98,5.98,5.98
58.58,-0.40,-0.40,-6.34,-6.34,6.33,1.87,5.93,5.93,5.94
59.16,-0.48,-0.48,-6.37,-6.37,6.37,1.87,5.89,5.89,5.89
59.76,-0.55,-0.55,-6.39,-6.40,6.40,1.86,5.85,5.84,5.84
60.35,-0.62,-0.62,-6.42,-6.42,6.42,1.86,5.80,5.80,5.80
60.96,-0.70,-0.70,-6.45,-6.44,6.44,1.85,5.75,5.75,5.75
61.57,-0.77,-0.77,-6.46,-6.47,6.47,1.84,5.70,5.69,5.69
62.18,-0.84,-0.84,-6.49,-6.48,6.48,1.83,5.64,5.64,5.65
62.80,-0.91,-0.91,-6.50,-6.50,6.50,1.81,5.59,5.59,5.59
63.43,-0.97,-0.97,-6.51,-6.51,6.51,1.80,5.54,5.54,5.53
64.07,-1.04,-1.04,-6.53,-6.52,6.53,1.79,5.49,5.49,5.49
64.71,-1.11,-1.11,-6.54,-6.54,6.54,1.77,5.43,5.43,5.43
65.35,-1.17,-1.17,-6.55,-6.55,6.54,1.75,5.37,5.37,5.38
66.01,-1.24,-1.24,-6.55,-6.55,6.55,1.73,5.31,5.31,5.31
66.67,-1.30,-1.30,-6.55,-6.55,6.55,1.71,5.25,5.25,5.25
67.33,-1.36,-1.36,-6.56,-6.55,6.56,1.69,5.19,5.19,5.20
68.01,-1.42,-1.42,-6.55,-6.55,6.55,1.67,5.13,5.13,5.13
68.69,-1.48,-1.48,-6.55,-6.55,6.55,1.65,5.07,5.07,5.07
69.37,-1.54,-1.54,-6.55,-6.55,6.54,1.62,5.00,5.01,5.01
70.07,-1.59,-1.59,-6.54,-6.54,6.54,1.59,4.95,4.94,4.95
70.77,-1.65,-1.65,-6.53,-6.52,6.52,1.57,4.87,4.88,4.88
71.48,-1.70,-1.70,-6.50,-6.51,6.51,1.54,4.81,4.81,4.80
72.19,-1.75,-1.76,-6.49,-6.49,6.50,1.51,4.75,4.74,4.74
72.91,-1.81,-1.81,-6.48,-6.47,6.48,1.47,4.67,4.67,4.67
73.64,-1.86,-1.86,-6.46,-6.46,6.45,1.44,4.59,4.60,4.60
74.38,-1.90,-1.90,-6.42,-6.43,6.43,1.41,4.53,4.52,4.52
75.12,-1.95,-1.95,-6.41,-6.40,6.40,1.37,4.45,4.45,4.46
75.87,-1.98,-1.98,-6.36,-6.36,6.36,1.33,4.38,4.38,4.38
76.63,-2.02,-2.02,-6.33,-6.32,6.33,1.29,4.31,4.31,4.31
77.40,-2.05,-2.05,-6.28,-6.28,6.28,1.25,4.23,4.23,4.23
78.17,-2.08,-2.08,-6.23,-6.24,6.23,1.21,4.15,4.15,4.15
78.95,-2.11,-2.10,-6.19,-6.18,6.18,1.17,4.07,4.08,4.08
79.74,-2.12,-2.13,-6.12,-6.12,6.12,1.13,4.00,4.00,4.00
80.54,-2.14,-2.14,-6.06,-6.06,6.06,1.08,3.92,3.92,3.92
81.35,-2.15,-2.15,-5.98,-5.98,5.98,1.03,3.83,3.84,3.83
82.16,-2.15,-2.15,-5.91,-5.91,5.91,0.98,3.76,3.75,3.76
82.98,-2.15,-2.15,-5.83,-5.82,5.82,0.93,3.67,3.67,3.68
83.81,-2.14,-2.14,-5.73,-5.73,5.73,0.88,3.59,3.59,3.59
84.65,-2.13,-2.13,-5.64,-5.64,5.64,0.83,3.51,3.50,3.51
85.50,-2.12,-2.12,-5.54,-5.54,5.54,0.77,3.42,3.42,3.42
86.35,-2.10,-2.10,-5.43,-5.43,5.43,0.72,3.33,3.33,3.33
87.22,-2.07,-2.07,-5.32,-5.32,5.32,0.66,3.25,3.25,3.25
88.09,-2.05,-2.05,-5.21,-5.21,5.21,0.60,3.16,3.16,3.16
88.97,-2.02,-2.02,-5.09,-5.10,5.10,0.54,3.08,3.08,3.07
89.86,-1.99,-1.99,-4.98,-4.98,4.98,0.48,2.99,2.99,2.99
90.76,-1.96,-1.96,-4.86,-4.86,4.85,0.42,2.89,2.90,2.90
91.66,-1.92,-1.92,-4.73,-4.73,4.73,0.35,2.81,2.81,2.81
92.58,-1.88,-1.88,-4.60,-4.60,4.60,0.28,2.72,2.72,2.72
93.51,-1.84,-1.84,-4.47,-4.47,4.48,0.22,2.64,2.64,2.63
94.44,-1.80,-1.80,-4.35,-4.34,4.35,0.15,2.55,2.55,2.55
95.39,-1.76,-1.76,-4.21,-4.21,4.21,0.08,2.45,2.45,2.45
96.34,-1.72,-1.72,-4.08,-4.08,4.08,0.00,2.36,2.36,2.36
97.30,-1.68,-1.68,-3.95,-3.95,3.95,-0.07,2.27,2.27,2.27
98.28,-1.63,-1.63,-3.82,-3.82,3.81,-0.15,2.18,2.18,2.18
99.26,-1.58,-1.58,-3.68,-3.68,3.68,-0.22,2.10,2.09,2.10
100.25,-1.54,-1.54,-3.54,-3.54,3.54,-0.30,2.00,2.00,2.00
101.25,-1.49,-1.49,-3.40,-3.40,3.40,-0.38,1.91,1.91,1.91
102.27,-1.44,-1.44,-3.26,-3.26,3.26,-0.46,1.82,1.82,1.82
103.29,-1.39,-1.39,-3.12,-3.12,3.12,-0.55,1.73,1.73,1.73
104.32,-1.34,-1.34,-2.99,-2.99,2.99,-0.63,1.65,1.65,1.65
105.37,-1.29,-1.29,-2.85,-2.85,2.85,-0.72,1.56,1.56,1.56
106.42,-1.24,-1.24,-2.71,-2.71,2.71,-0.80,1.47,1.47,1.47
107.48,-1.19,-1.19,-2.57,-2.57,2.57,-0.89,1.38,1.38,1.38
108.56,-1.14,-1.14,-2.44,-2.44,2.43,-0.98,1.29,1.30,1.30
109.64,-1.09,-1.09,-2.30,-2.30,2.30,-1.07,1.21,1.21,1.21
110.74,-1.03,-1.03,-2.15,-2.16,2.16,-1.17,1.13,1.12,1.12
111.85,-0.98,-0.98,-2.02,-2.02,2.02,-1.26,1.04,1.04,1.04
112.97,-0.92,-0.92,-1.87,-1.88,1.87,-1.36,0.95,0.95,0.95
114.10,-0.87,-0.87,-1.74,-1.74,1.73,-1.45,0.86,0.86,0.87
115.24,-0.81,-0.81,-1.59,-1.59,1.59,-1.55,0.78,0.78,0.78
116.39,-0.75,-0.75,-1.45,-1.45,1.45,-1.65,0.70,0.70,0.70
117.55,-0.69,-0.69,-1.31,-1.31,1.31,-1.75,0.62,0.62,0.62
118.73,-0.64,-0.64,-1.18,-1.18,1.18,-1.85,0.54,0.54,0.54
119.92,-0.59,-0.59,-1.05,-1.04,1.05,-1.96,0.46,0.46,0.46
121.12,-0.54,-0.54,-0.91,-0.92,0.92,-2.06,0.38,0.38,0.37
122.33,-0.49,-0.49,-0.79,-0.79,0.79,-2.17,0.30,0.30,0.30
123.55,-0.45,-0.45,-0.68,-0.67,0.67,-2.27,0.22,0.23,0.23
124.79,-0.41,-0.41,-0.56,-0.56,0.56,-2.38,0.15,0.15,0.15
126.03,-0.37,-0.37,-0.44,-0.44,0.44,-2.49,0.07,0.07,0.07
127.29,-0.33,-0.33,-0.33,-0.33,0.33,-2.60,0.00,-0.00,0.00
128.57,-0.30,-0.30,-0.23,-0.22,0.22,-2.71,-0.08,-0.07,-0.07
129.85,-0.26,-0.26,-0.11,-0.11,0.11,-2.82,-0.15,-0.15,-0.15
131.15,-0.22,-0.22,0.00,-0.01,0.00,-2.93,-0.22,-0.22,-0.22
132.46,-0.19,-0.19,0.09,0.10,-0.10,-3.05,-0.29,-0.29,-0.28
133.79,-0.15,-0.15,0.20,0.21,-0.21,-3.16,-0.36,-0.36,-0.35
135.12,-0.11,-0.11,0.32,0.31,-0.31,-3.28,-0.42,-0.42,-0.43
136.48,-0.07,-0.07,0.42,0.42,-0.41,-3.39,-0.48,-0.49,-0.49
137.84,-0.04,-0.04,0.51,0.52,-0.51,-3.51,-0.55,-0.55,-0.55
139.22,-0.00,-0.00,0.61,0.61,-0.61,-3.63,-0.61,-0.61,-0.61
140.61,0.03,0.03,0.71,0.71,-0.70,-3.74,-0.67,-0.67,-0.68
142.02,0.06,0.06,0.79,0.80,-0.79,-3.86,-0.73,-0.73,-0.73
143.44,0.09,0.09,0.89,0.88,-0.88,-3.98,-0.79,-0.79,-0.80
144.87,0.11,0.11,0.96,0.96,-0.96,-4.10,-0.85,-0.85,-0.85
146.32,0.13,0.13,1.04,1.04,-1.04,-4.22,-0.91,-0.91,-0.91
147.78,0.15,0.15,1.11,1.11,-1.11,-4.34,-0.96,-0.96,-0.96
149.26,0.17,0.17,1.19,1.19,-1.18,-4.46,-1.01,-1.02,-1.02
150.75,0.18,0.18,1.25,1.25,-1.25,-4.58,-1.07,-1.07,-1.07
152.26,0.20,0.20,1.32,1.32,-1.32,-4.70,-1.12,-1.12,-1.12
153.78,0.21,0.21,1.38,1.38,-1.38,-4.82,-1.17,-1.17,-1.17
155.32,0.23,0.23,1.45,1.45,-1.45,-4.94,-1.22,-1.22,-1.22
156.88,0.25,0.25,1.51,1.51,-1.51,-5.06,-1.26,-1.26,-1.26
158.44,0.26,0.26,1.57,1.57,-1.57,-5.18,-1.31,-1.30,-1.31
160.03,0.27,0.27,1.62,1.62,-1.62,-5.30,-1.35,-1.35,-1.35
161.63,0.29,0.29,1.68,1.68,-1.68,-5.42,-1.39,-1.39,-1.39
163.24,0.30,0.30,1.73,1.73,-1.73,-5.54,-1.43,-1.43,-1.43
164.88,0.31,0.31,1.78,1.78,-1.78,-5.66,-1.47,-1.47,-1.47
166.53,0.32,0.32,1.83,1.83,-1.83,-5.77,-1.51,-1.51,-1.51
168.19,0.34,0.34,1.88,1.88,-1.88,-5.89,-1.54,-1.54,-1.54
169.87,0.35,0.35,1.93,1.93,-1.93,-6.01,-1.58,-1.58,-1.58
171.57,0.37,0.37,1.98,1.98,-1.98,-6.12,-1.61,-1.61,-1.61
173.29,0.40,0.40,2.04,2.04,-2.04,-6.23,-1.64,-1.64,-1.64
175.02,0.43,0.43,2.10,2.10,-2.10,-6.35,-1.67,-1.67,-1.67
176.77,0.46,0.46,2.15,2.16,-2.16,-6.46,-1.70,-1.70,-1.69
178.54,0.50,0.50,2.22,2.22,-2.22,-6.56,-1.72,-1.72,-1.72
180.32,0.54,0.54,2.29,2.29,-2.28,-6.67,-1.74,-1.74,-1.75
182.13,0.58,0.58,2.35,2.35,-2.35,-6.78,-1.77,-1.77,-1.77
183.95,0.62,0.62,2.41,2.41,-2.41,-6.88,-1.79,-1.79,-1.79
185.79,0.65,0.65,2.47,2.47,-2.47,-6.98,-1.82,-1.81,-1.82
187.65,0.69,0.69,2.53,2.52,-2.52,-7.08,-1.83,-1.84,-1.84
189.52,0.72,0.72,2.58,2.58,-2.58,-7.17,-1.86,-1.86,-1.86
191.42,0.76,0.76,2.63,2.63,-2.63,-7.27,-1.87,-1.88,-1.87
193.33,0.79,0.79,2.68,2.68,-2.69,-7.36,-1.90,-1.89,-1.89
195.27,0.83,0.83,2.74,2.74,-2.74,-7.44,-1.91,-1.91,-1.91
197.22,0.87,0.87,2.79,2.79,-2.79,-7.53,-1.92,-1.92,-1.92
199.19,0.91,0.91,2.84,2.84,-2.84,-7.61,-1.93,-1.93,-1.93
201.18,0.95,0.95,2.89,2.89,-2.90,-7.68,-1.95,-1.94,-1.94
203.19,1.00,1.00,2.96,2.95,-2.95,-7.75,-1.95,-1.95,-1.95
205.23,1.04,1.04,3.00,3.00,-3.00,-7.82,-1.96,-1.96,-1.96
207.28,1.08,1.08,3.05,3.05,-3.05,-7.89,-1.97,-1.97,-1.97
209.35,1.13,1.13,3.11,3.10,-3.10,-7.94,-1.97,-1.97,-1.98
211.44,1.17,1.17,3.15,3.15,-3.15,-8.00,-1.98,-1.98,-1.98
213.56,1.21,1.21,3.19,3.19,-3.19,-8.05,-1.98,-1.98,-1.98
215.69,1.25,1.25,3.23,3.23,-3.24,-8.10,-1.99,-1.99,-1.98
217.85,1.29,1.29,3.28,3.28,-3.28,-8.14,-1.99,-1.99,-1.99
220.03,1.33,1.33,3.32,3.32,-3.32,-8.17,-1.99,-1.99,-1.99
222.23,1.36,1.36,3.35,3.35,-3.35,-8.20,-1.99,-1.99,-1.99
224.45,1.40,1.40,3.39,3.39,-3.38,-8.23,-1.98,-1.99,-1.99
226.70,1.43,1.43,3.41,3.41,-3.42,-8.25,-1.99,-1.99,-1.98
228.96,1.46,1.46,3.44,3.44,-3.44,-8.27,-1.98,-1.98,-1.98
231.25,1.49,1.49,3.47,3.47,-3.47,-8.27,-1.98,-1.98,-1.98
233.57,1.52,1.52,3.50,3.49,-3.49,-8.28,-1.97,-1.97,-1.98
235.90,1.54,1.54,3.51,3.51,-3.51,-8.28,-1.97,-1.97,-1.97
238.26,1.56,1.56,3.52,3.53,-3.53,-8.27,-1.97,-1.96,-1.96
240.64,1.59,1.59,3.54,3.54,-3.54,-8.26,-1.95,-1.95,-1.95
243.05,1.61,1.61,3.55,3.55,-3.56,-8.25,-1.95,-1.95,-1.94
245.48,1.63,1.63,3.57,3.56,-3.57,-8.23,-1.94,-1.94,-1.94
247.93,1.65,1.65,3.57,3.58,-3.58,-8.20,-1.93,-1.92,-1.92
250.41,1.67,1.67,3.58,3.58,-3.58,-8.17,-1.91,-1.91,-1.91
252.92,1.69,1.69,3.59,3.59,-3.59,-8.14,-1.90,-1.90,-1.90
255.45,1.70,1.70,3.59,3.60,-3.59,-8.10,-1.89,-1.89,-1.89
258.00,1.72,1.72,3.60,3.60,-3.59,-8.06,-1.87,-1.88,-1.88
260.58,1.73,1.73,3.60,3.59,-3.59,-8.01,-1.86,-1.87,-1.87
263.19,1.74,1.74,3.59,3.59,-3.59,-7.96,-1.85,-1.85,-1.85
265.82,1.75,1.75,3.58,3.59,-3.59,-7.91,-1.84,-1.83,-1.83
268.48,1.77,1.76,3.59,3.58,-3.58,-7.85,-1.81,-1.82,-1.82
271.16,1.77,1.77,3.57,3.58,-3.58,-7.79,-1.81,-1.80,-1.80
273.87,1.78,1.78,3.56,3.57,-3.57,-7.72,-1.79,-1.79,-1.78
276.61,1.79,1.79,3.56,3.55,-3.56,-7.66,-1.77,-1.77,-1.77
279.38,1.79,1.79,3.54,3.54,-3.54,-7.59,-1.75,-1.75,-1.75
282.17,1.80,1.80,3.53,3.53,-3.53,-7.51,-1.73,-1.73,-1.73
284.99,1.80,1.80,3.52,3.51,-3.51,-7.44,-1.71,-1.71,-1.72
287.84,1.80,1.80,3.50,3.49,-3.49,-7.36,-1.69,-1.69,-1.70
290.72,1.80,1.80,3.47,3.47,-3.47,-7.28,-1.67,-1.67,-1.67
293.63,1.79,1.79,3.44,3.45,-3.45,-7.20,-1.66,-1.65,-1.65
296.57,1.79,1.79,3.43,3.42,-3.42,-7.12,-1.63,-1.63,-1.64
299.53,1.78,1.78,3.39,3.39,-3.39,-7.04,-1.61,-1.61,-1.61
302.53,1.77,1.77,3.36,3.36,-3.36,-6.95,-1.59,-1.59,-1.59
305.55,1.76,1.76,3.33,3.33,-3.33,-6.86,-1.57,-1.57,-1.57
308.61,1.75,1.75,3.30,3.30,-3.30,-6.78,-1.55,-1.55,-1.55
311.69,1.74,1.74,3.26,3.26,-3.26,-6.69,-1.52,-1.52,-1.52
314.81,1.72,1.72,3.23,3.22,-3.22,-6.60,-1.50,-1.50,-1.51
317.96,1.70,1.70,3.18,3.18,-3.18,-6.51,-1.48,-1.48,-1.48
321.14,1.68,1.68,3.14,3.14,-3.14,-6.42,-1.46,-1.46,-1.46
324.35,1.66,1.66,3.10,3.10,-3.10,-6.33,-1.44,-1.44,-1.44
327.59,1.64,1.64,3.05,3.05,-3.05,-6.24,-1.41,-1.41,-1.41
330.87,1.61,1.61,3.00,3.00,-3.00,-6.15,-1.39,-1.39,-1.39
334.18,1.58,1.58,2.95,2.95,-2.95,-6.06,-1.37,-1.37,-1.37
337.52,1.55,1.55,2.90,2.90,-2.90,-5.98,-1.35,-1.35,-1.35
340.90,1.52,1.52,2.84,2.84,-2.84,-5.89,-1.32,-1.32,-1.32
344.30,1.48,1.48,2.78,2.78,-2.78,-5.80,-1.30,-1.30,-1.30
347.75,1.45,1.45,2.72,2.72,-2.72,-5.71,-1.27,-1.27,-1.27
351.23,1.41,1.41,2.66,2.66,-2.66,-5.62,-1.25,-1.25,-1.25
354.74,1.37,1.37,2.59,2.59,-2.59,-5.54,-1.22,-1.22,-1.22
358.28,1.32,1.32,2.52,2.53,-2.53,-5.45,-1.21,-1.20,-1.20
361.87,1.28,1.28,2.46,2.45,-2.46,-5.37,-1.18,-1.18,-1.18
365.49,1.23,1.23,2.38,2.38,-2.38,-5.28,-1.15,-1.15,-1.15
369.14,1.18,1.18,2.31,2.31,-2.31,-5.20,-1.13,-1.13,-1.13
372.83,1.13,1.13,2.24,2.23,-2.23,-5.12,-1.10,-1.10,-1.11
376.56,1.07,1.07,2.15,2.15,-2.15,-5.04,-1.08,-1.08,-1.08
380.33,1.01,1.01,2.06,2.07,-2.07,-4.96,-1.06,-1.05,-1.05
384.13,0.95,0.95,1.98,1.98,-1.98,-4.88,-1.03,-1.03,-1.03
387.97,0.89,0.89,1.89,1.89,-1.89,-4.81,-1.00,-1.00,-1.00
391.85,0.82,0.82,1.80,1.80,-1.80,-4.73,-0.98,-0.98,-0.98
395.77,0.75,0.75,1.70,1.70,-1.71,-4.66,-0.96,-0.95,-0.95
399.73,0.68,0.68,1.61,1.61,-1.61,-4.59,-0.93,-0.93,-0.93
403.72,0.60,0.60,1.51,1.51,-1.51,-4.52,-0.91,-0.91,-0.91
407.76,0.53,0.53,1.42,1.41,-1.41,-4.45,-0.88,-0.88,-0.89
411.84,0.44,0.44,1.30,1.30,-1.30,-4.39,-0.86,-0.86,-0.86
415.96,0.36,0.36,1.19,1.19,-1.19,-4.32,-0.83,-0.83,-0.83
420.12,0.27,0.27,1.08,1.08,-1.08,-4.26,-0.81,-0.81,-0.81
424.32,0.18,0.18,0.96,0.97,-0.97,-4.20,-0.79,-0.79,-0.78
428.56,0.09,0.09,0.85,0.85,-0.85,-4.15,-0.76,-0.76,-0.76
432.85,0.00,-0.00,0.74,0.73,-0.73,-4.09,-0.73,-0.73,-0.74
437.18,-0.10,-0.10,0.61,0.62,-0.61,-4.04,-0.71,-0.71,-0.71
441.55,-0.19,-0.19,0.49,0.49,-0.49,-3.98,-0.68,-0.69,-0.68
445.96,-0.29,-0.29,0.37,0.37,-0.37,-3.94,-0.66,-0.66,-0.66
450.42,-0.39,-0.39,0.25,0.25,-0.25,-3.89,-0.64,-0.64,-0.64
454.93,-0.49,-0.49,0.13,0.13,-0.13,-3.84,-0.62,-0.62,-0.62
459.48,-0.58,-0.58,0.02,0.01,-0.01,-3.80,-0.59,-0.59,-0.60
464.07,-0.67,-0.67,-0.10,-0.10,0.10,-3.76,-0.57,-0.57,-0.57
468.71,-0.76,-0.76,-0.21,-0.21,0.21,-3.72,-0.55,-0.55,-0.55
473.40,-0.85,-0.85,-0.33,-0.32,0.32,-3.69,-0.53,-0.53,-0.52
478.13,-0.93,-0.93,-0.43,-0.43,0.42,-3.65,-0.51,-0.50,-0.50
482.91,-1.00,-1.00,-0.53,-0.53,0.52,-3.62,-0.48,-0.48,-0.47
487.74,-1.07,-1.07,-0.61,-0.61,0.61,-3.60,-0.46,-0.46,-0.46
492.62,-1.13,-1.13,-0.70,-0.70,0.70,-3.57,-0.43,-0.43,-0.43
497.55,-1.19,-1.19,-0.78,-0.78,0.78,-3.55,-0.41,-0.41,-0.41
502.52,-1.24,-1.24,-0.85,-0.85,0.85,-3.52,-0.39,-0.39,-0.39
507.55,-1.29,-1.29,-0.92,-0.92,0.92,-3.51,-0.37,-0.37,-0.37
512.62,-1.34,-1.34,-0.99,-0.99,0.99,-3.49,-0.35,-0.35,-0.35
517.75,-1.39,-1.39,-1.06,-1.06,1.06,-3.48,-0.33,-0.33,-0.33
522.93,-1.43,-1.43,-1.12,-1.13,1.13,-3.46,-0.30,-0.31,-0.31
528.16,-1.48,-1.48,-1.19,-1.19,1.19,-3.45,-0.29,-0.29,-0.29
533.44,-1.52,-1.52,-1.24,-1.25,1.25,-3.45,-0.27,-0.27,-0.28
538.77,-1.56,-1.56,-1.30,-1.31,1.31,-3.44,-0.25,-0.25,-0.26
544.16,-1.60,-1.60,-1.36,-1.36,1.37,-3.44,-0.23,-0.23,-0.24
549.60,-1.64,-1.64,-1.42,-1.42,1.42,-3.44,-0.22,-0.22,-0.22
555.10,-1.67,-1.67,-1.46,-1.46,1.46,-3.44,-0.21,-0.21,-0.21
560.65,-1.69,-1.69,-1.50,-1.50,1.50,-3.45,-0.19,-0.20,-0.19
566.25,-1.70,-1.70,-1.52,-1.52,1.52,-3.45,-0.18,-0.18,-0.18
571.92,-1.70,-1.70,-1.54,-1.54,1.53,-3.46,-0.17,-0.17,-0.16
577.64,-1.68,-1.68,-1.53,-1.53,1.53,-3.47,-0.15,-0.15,-0.15
583.41,-1.66,-1.66,-1.52,-1.52,1.51,-3.49,-0.15,-0.14,-0.14
589.25,-1.62,-1.62,-1.49,-1.49,1.49,-3.50,-0.13,-0.13,-0.13
595.14,-1.57,-1.57,-1.45,-1.45,1.44,-3.52,-0.13,-0.12,-0.12
601.09,-1.50,-1.50,-1.39,-1.39,1.39,-3.54,-0.11,-0.11,-0.11
607.10,-1.43,-1.43,-1.33,-1.33,1.33,-3.56,-0.10,-0.10,-0.10
613.17,-1.36,-1.36,-1.27,-1.26,1.26,-3.58,-0.10,-0.09,-0.09
619.30,-1.28,-1.28,-1.19,-1.19,1.19,-3.60,-0.09,-0.09,-0.09
625.50,-1.19,-1.19,-1.10,-1.11,1.11,-3.63,-0.08,-0.09,-0.09
631.75,-1.11,-1.11,-1.02,-1.02,1.02,-3.66,-0.09,-0.09,-0.09
638.07,-1.02,-1.02,-0.94,-0.94,0.94,-3.69,-0.08,-0.08,-0.08
644.45,-0.93,-0.93,-0.85,-0.85,0.85,-3.72,-0.08,-0.08,-0.08
650.89,-0.84,-0.84,-0.75,-0.75,0.76,-3.75,-0.08,-0.08,-0.09
657.40,-0.75,-0.75,-0.66,-0.67,0.67,-3.79,-0.08,-0.08,-0.09
663.98,-0.67,-0.67,-0.58,-0.58,0.58,-3.82,-0.09,-0.09,-0.09
670.62,-0.59,-0.59,-0.50,-0.50,0.50,-3.86,-0.09,-0.09,-0.09
677.32,-0.51,-0.51,-0.41,-0.41,0.41,-3.89,-0.10,-0.10,-0.10
