frequency,raw
20.00,5.67
20.20,5.63
20.40,5.60
20.61,5.58
20.81,5.56
21.02,5.54
21.23,5.53
21.44,5.51
21.66,5.49
21.87,5.46
22.09,5.42
22.31,5.38
22.54,5.33
22.76,5.28
22.99,5.24
23.22,5.20
23.45,5.17
23.69,5.14
23.92,5.11
24.16,5.09
24.40,5.06
24.65,5.02
24.89,4.99
25.14,4.95
25.39,4.92
25.65,4.89
25.91,4.86
26.16,4.83
26.43,4.79
26.69,4.76
26.96,4.72
27.23,4.68
27.50,4.64
27.77,4.61
28.05,4.58
28.33,4.56
28.62,4.53
28.90,4.50
29.19,4.47
29.48,4.43
29.78,4.38
30.08,4.34
30.38,4.30
30.68,4.28
30.99,4.25
31.30,4.22
31.61,4.17
31.93,4.13
32.24,4.08
32.57,4.04
32.89,4.00
33.22,3.98
33.55,3.95
33.89,3.92
34.23,3.89
34.57,3.85
34.92,3.82
35.27,3.78
35.62,3.75
35.97,3.72
36.33,3.69
36.70,3.66
37.06,3.62
37.43,3.59
37.81,3.55
38.19,3.53
38.57,3.49
38.95,3.46
39.34,3.42
39.74,3.39
40.14,3.36
40.54,3.33
40.94,3.31
41.35,3.28
41.76,3.25
42.18,3.22
42.60,3.19
43.03,3.16
43.46,3.12
43.90,3.08
44.33,3.04
44.78,3.00
45.23,2.98
45.68,2.96
46.13,2.94
46.60,2.91
47.06,2.88
47.53,2.85
48.01,2.82
48.49,2.80
48.97,2.77
49.46,2.74
49.96,2.70
50.46,2.67
50.96,2.64
51.47,2.62
51.99,2.60
52.51,2.58
53.03,2.55
53.56,2.53
54.10,2.51
54.64,2.49
55.18,2.47
55.74,2.45
56.29,2.43
56.86,2.41
57.42,2.40
58.00,2.39
58.58,2.38
59.16,2.38
59.76,2.39
60.35,2.38
60.96,2.36
61.57,2.34
62.18,2.34
62.80,2.33
63.43,2.31
64.07,2.28
64.71,2.26
65.35,2.24
66.01,2.22
66.67,2.21
67.33,2.20
68.01,2.21
68.69,2.21
69.37,2.20
70.07,2.19
70.77,2.17
71.48,2.15
72.19,2.13
72.91,2.13
73.64,2.13
74.38,2.13
75.12,2.12
75.87,2.11
76.63,2.09
77.40,2.09
78.17,2.09
78.95,2.09
79.74,2.09
80.54,2.08
81.35,2.06
82.16,2.08
82.98,2.08
83.81,2.08
84.65,2.08
85.50,2.07
86.35,2.06
87.22,2.05
88.09,2.05
88.97,2.05
89.86,2.04
90.76,2.03
91.66,2.02
92.58,2.01
93.51,1.99
94.44,1.97
95.39,1.95
96.34,1.96
97.30,1.96
98.28,1.96
99.26,1.96
100.25,1.96
101.25,1.97
102.27,1.98
103.29,1.99
104.32,1.99
105.37,1.97
106.42,1.94
107.48,1.91
108.56,1.88
109.64,1.88
110.74,1.87
111.85,1.87
112.97,1.86
114.10,1.86
115.24,1.85
116.39,1.85
117.55,1.84
118.73,1.83
119.92,1.82
121.12,1.82
122.33,1.81
123.55,1.82
124.79,1.81
126.03,1.79
127.29,1.77
128.57,1.76
129.85,1.77
131.15,1.77
132.46,1.76
133.79,1.75
135.12,1.73
136.48,1.72
137.84,1.68
139.22,1.66
140.61,1.65
142.02,1.67
143.44,1.67
144.87,1.66
146.32,1.65
147.78,1.63
149.26,1.62
150.75,1.61
152.26,1.60
153.78,1.58
155.32,1.54
156.88,1.52
158.44,1.49
160.03,1.46
161.63,1.47
163.24,1.48
164.88,1.47
166.53,1.45
168.19,1.43
169.87,1.41
171.57,1.39
173.29,1.38
175.02,1.37
176.77,1.35
178.54,1.34
180.32,1.35
182.13,1.38
183.95,1.37
185.79,1.35
187.65,1.32
189.52,1.30
191.42,1.29
193.33,1.28
195.27,1.29
197.22,1.29
199.19,1.29
201.18,1.27
203.19,1.25
205.23,1.23
207.28,1.21
209.35,1.19
211.44,1.16
213.56,1.11
215.69,1.09
217.85,1.07
220.03,1.07
222.23,1.06
224.45,1.05
226.70,1.03
228.96,1.02
231.25,1.01
233.57,0.99
235.90,0.97
238.26,0.95
240.64,0.94
243.05,0.94
245.48,0.91
247.93,0.89
250.41,0.87
252.92,0.86
255.45,0.86
258.00,0.85
260.58,0.81
263.19,0.77
265.82,0.75
268.48,0.75
271.16,0.75
273.87,0.74
276.61,0.71
279.38,0.68
282.17,0.66
284.99,0.66
287.84,0.61
290.72,0.58
293.63,0.56
296.57,0.51
299.53,0.45
302.53,0.39
305.55,0.36
308.61,0.32
311.69,0.27
314.81,0.23
317.96,0.19
321.14,0.14
324.35,0.09
327.59,0.04
330.87,0.01
334.18,-0.00
337.52,-0.05
340.90,-0.12
344.30,-0.19
347.75,-0.26
351.23,-0.29
354.74,-0.31
358.28,-0.36
361.87,-0.41
365.49,-0.48
369.14,-0.54
372.83,-0.58
376.56,-0.64
380.33,-0.71
384.13,-0.73
387.97,-0.76
391.85,-0.81
395.77,-0.85
399.73,-0.90
403.72,-0.94
407.76,-0.99
411.84,-1.03
415.96,-1.07
420.12,-1.10
424.32,-1.12
428.56,-1.13
432.85,-1.14
437.18,-1.17
441.55,-1.20
445.96,-1.22
450.42,-1.22
454.93,-1.22
459.48,-1.23
464.07,-1.21
468.71,-1.21
473.40,-1.22
478.13,-1.21
482.91,-1.20
487.74,-1.19
492.62,-1.20
497.55,-1.16
502.52,-1.14
507.55,-1.18
512.62,-1.12
517.75,-1.07
522.93,-1.02
528.16,-1.00
533.44,-0.98
538.77,-0.95
544.16,-0.89
549.60,-0.86
555.10,-0.83
560.65,-0.76
566.25,-0.76
571.92,-0.76
577.64,-0.68
583.41,-0.63
589.25,-0.58
595.14,-0.54
601.09,-0.49
607.10,-0.43
613.17,-0.37
619.30,-0.39
625.50,-0.35
631.75,-0.28
638.07,-0.26
644.45,-0.19
650.89,-0.11
657.40,-0.10
663.98,-0.08
670.62,-0.06
677.32,-0.05
684.10,-0.01
690.94,0.01
697.85,0.02
704.83,0.02
711.87,0.04
718.99,0.08
726.18,0.08
733.44,0.10
740.78,0.13
748.19,0.13
755.67,0.09
763.23,0.06
770.86,0.10
778.57,0.09
786.35,0.09
794.22,0.10
802.16,0.10
810.18,0.07
818.28,0.02
826.46,0.00
834.73,-0.00
843.08,0.00
851.51,-0.00
860.02,-0.01
868.62,-0.02
877.31,-0.03
886.08,-0.04
894.94,-0.05
903.89,-0.06
912.93,-0.05
922.06,-0.05
931.28,-0.05
940.59,-0.07
950.00,-0.08
959.50,-0.10
969.09,-0.09
978.78,-0.06
988.57,-0.03
998.46,-0.00
1008.44,0.00
1018.53,0.01
1028.71,0.03
1039.00,0.06
1049.39,0.08
1059.88,0.07
1070.48,0.12
1081.19,0.17
1092.00,0.19
1102.92,0.22
1113.95,0.26
1125.09,0.29
1136.34,0.31
1147.70,0.35
1159.18,0.40
1170.77,0.43
1182.48,0.45
1194.30,0.46
1206.25,0.48
1218.31,0.52
1230.49,0.56
1242.80,0.59
1255.22,0.63
1267.78,0.65
1280.45,0.66
1293.26,0.70
1306.19,0.73
1319.25,0.75
1332.45,0.74
1345.77,0.74
1359.23,0.75
1372.82,0.73
1386.55,0.74
1400.41,0.75
1414.42,0.75
1428.56,0.73
1442.85,0.70
1457.28,0.66
1471.85,0.64
1486.57,0.62
1501.43,0.60
1516.45,0.61
1531.61,0.60
1546.93,0.58
1562.40,0.54
1578.02,0.50
1593.80,0.45
1609.74,0.40
1625.84,0.36
1642.10,0.33
1658.52,0.33
1675.10,0.29
1691.85,0.24
1708.77,0.18
1725.86,0.13
1743.12,0.07
1760.55,0.02
1778.15,-0.03
1795.94,-0.08
1813.90,-0.13
1832.03,-0.19
1850.36,-0.26
1868.86,-0.32
1887.55,-0.38
1906.42,-0.39
1925.49,-0.41
1944.74,-0.46
1964.19,-0.54
1983.83,-0.60
2003.67,-0.64
2023.71,-0.73
2043.94,-0.77
2064.38,-0.78
2085.03,-0.83
2105.88,-0.87
2126.94,-0.91
2148.20,-0.95
2169.69,-0.97
2191.38,-0.98
2213.30,-0.97
2235.43,-0.98
2257.78,-1.00
2280.36,-1.02
2303.17,-1.03
2326.20,-1.04
2349.46,-1.05
2372.95,-1.05
2396.68,-1.05
2420.65,-1.05
2444.86,-1.05
2469.31,-1.03
2494.00,-1.01
2518.94,-0.99
2544.13,-0.94
2569.57,-0.88
2595.27,-0.82
2621.22,-0.75
2647.43,-0.68
2673.90,-0.61
2700.64,-0.56
2727.65,-0.48
2754.93,-0.39
2782.48,-0.31
2810.30,-0.23
2838.40,-0.15
2866.79,-0.10
2895.46,-0.07
2924.41,-0.02
2953.65,0.04
2983.19,0.13
3013.02,0.21
3043.15,0.26
3073.58,0.32
3104.32,0.37
3135.36,0.41
3166.72,0.46
3198.38,0.51
3230.37,0.56
3262.67,0.58
3295.30,0.60
3328.25,0.62
3361.53,0.65
3395.15,0.68
3429.10,0.71
3463.39,0.72
3498.03,0.76
3533.01,0.81
3568.34,0.86
3604.02,0.93
3640.06,1.00
3676.46,1.07
3713.22,1.12
3750.36,1.19
3787.86,1.27
3825.74,1.34
3864.00,1.41
3902.64,1.49
3941.66,1.56
3981.08,1.61
4020.89,1.64
4061.10,1.67
4101.71,1.66
4142.73,1.66
4184.15,1.67
4226.00,1.62
4268.26,1.57
4310.94,1.52
4354.05,1.43
4397.59,1.34
4441.56,1.24
4485.98,1.16
4530.84,1.03
4576.15,0.90
4621.91,0.79
4668.13,0.66
4714.81,0.53
4761.96,0.43
4809.58,0.29
4857.67,0.15
4906.25,0.00
4955.31,-0.05
5004.87,-0.07
5054.91,-0.08
5105.46,-0.12
5156.52,-0.13
5208.08,-0.14
5260.16,-0.19
5312.77,-0.21
5365.89,-0.14
5419.55,0.05
5473.75,0.24
5528.49,0.41
5583.77,0.54
5639.61,0.64
5696.00,0.77
5752.96,0.91
5810.49,1.06
5868.60,1.22
5927.28,1.38
5986.56,1.62
6046.42,1.88
6106.89,2.16
6167.96,2.44
6229.64,2.68
6291.93,2.90
6354.85,3.09
6418.40,3.24
6482.58,3.37
6547.41,3.47
6612.88,3.49
6679.01,3.49
6745.80,3.47
6813.26,3.44
6881.39,3.36
6950.21,3.29
7019.71,3.24
7089.91,3.23
7160.81,3.25
7232.41,3.35
7304.74,3.48
7377.79,3.66
7451.56,3.88
7526.08,4.22
7601.34,4.65
7677.35,5.15
7754.13,5.77
7831.67,6.43
7909.98,7.09
7989.08,7.57
8068.98,7.67
8149.67,7.38
8231.16,6.46
8313.47,5.07
8396.61,3.53
8480.57,1.91
8565.38,0.42
8651.03,-1.07
8737.54,-2.57
8824.92,-3.80
8913.17,-5.02
9002.30,-6.22
9092.32,-7.29
9183.25,-8.32
9275.08,-9.32
9367.83,-10.23
9461.51,-11.10
9556.12,-11.94
9651.68,-12.76
9748.20,-13.57
9845.68,-14.34
9944.14,-15.04
10043.58,-15.64
10144.02,-16.23
10245.46,-16.82
10347.91,-17.43
10451.39,-17.98
10555.91,-18.48
10661.46,-18.95
10768.08,-19.40
10875.76,-19.82
10984.52,-20.16
11094.36,-20.53
11205.31,-20.89
11317.36,-21.21
11430.53,-21.30
11544.84,-21.54
11660.29,-21.98
11776.89,-22.22
11894.66,-22.33
12013.60,-22.34
12133.74,-22.38
12255.08,-22.41
12377.63,-22.46
12501.41,-22.62
12626.42,-22.63
12752.68,-22.59
12880.21,-22.56
13009.01,-22.62
13139.10,-22.67
13270.49,-22.65
13403.20,-22.52
13537.23,-22.37
13672.60,-22.21
13809.33,-22.04
13947.42,-21.78
14086.90,-21.45
14227.77,-20.92
14370.04,-20.40
14513.74,-19.79
14658.88,-18.84
14805.47,-17.76
14953.52,-16.53
15103.06,-15.08
15254.09,-13.91
15406.63,-13.38
15560.70,-13.69
15716.30,-15.72
15873.47,-17.94
16032.20,-20.26
16192.52,-22.33
16354.45,-23.86
16517.99,-25.06
16683.17,-26.25
16850.01,-27.27
17018.51,-28.17
17188.69,-28.92
17360.58,-29.79
17534.18,-30.69
17709.53,-31.61
17886.62,-32.27
18065.49,-32.74
18246.14,-33.02
18428.60,-32.95
18612.89,-32.20
18799.02,-30.78
18987.01,-28.26
19176.88,-32.55
19368.65,-41.48
19562.33,-54.37
19757.96,-56.69
19955.54,-55.79
